{
    "AcquisitionMatrixPE": 84,
    "AcquisitionNumber": 1,
    "AcquisitionTime": "12:32:41.155000",
    "BaseResolution": 168,
    "CoilString": "C:E1,2",
    "ConversionSoftware": "dcm2niix",
    "ConversionSoftwareVersion": "v1.0.20201020",
    "DeviceSerialNumber": "18932",
    "DwellTime": 4.9e-06,
    "EchoNumber": 2,
    "EchoTime": 0.0051,
    "EchoTime1": 0.00408,
    "EchoTime2": 0.0051,
    "FlipAngle": 35,
    "ImageOrientationPatientDICOM": [
        1,
        -2.05103e-10,
        0,
        2.05103e-10,
        1,
        0
    ],
    "ImageType": [
        "ORIGINAL",
        "PRIMARY",
        "P",
        "ND",
        "PHASE"
    ],
    "ImagingFrequency": 297.229,
    "InPlanePhaseEncodingDirectionDICOM": "ROW",
    "InstitutionAddress": "Richmond Street North 1151,London /409EF2/,Ontario,CA,N6A 5B7",
    "InstitutionName": "Robarts Reserch Institute",
    "InstitutionalDepartmentName": "Department",
    "MRAcquisitionType": "2D",
    "MagneticFieldStrength": 6.98,
    "Manufacturer": "Siemens",
    "ManufacturersModelName": "Investigational_Device_7T",
    "Modality": "MR",
    "PartialFourier": 0.75,
    "PatientPosition": "HFS",
    "PercentPhaseFOV": 100,
    "PercentSampling": 50,
    "PhaseEncodingDirection": "i",
    "PhaseEncodingSteps": 63,
    "PhaseResolution": 0.5,
    "PixelBandwidth": 607,
    "ProcedureStepDescription": "Diedrichsen^SeqRep4",
    "ProtocolName": "gre_field_mapping",
    "PulseSequenceDetails": "%SiemensSeq%\\gre_field_mapping",
    "ReceiveCoilName": "CFMM_8Tx32Rx",
    "ReconMatrixPE": 168,
    "RepetitionTime": 0.475,
    "ScanOptions": "PFP",
    "ScanningSequence": "GR",
    "SequenceName": "fm2d2r",
    "SequenceVariant": "SP",
    "SeriesDescription": "gre_field_mapping",
    "SeriesNumber": 14,
    "ShimSetting": [
        33,
        2030,
        91,
        1483,
        117,
        146,
        149,
        -124
    ],
    "SliceThickness": 2.5,
    "SliceTiming": [
        0.24219,
        0,
        0.25,
        0.00781,
        0.25781,
        0.01562,
        0.26562,
        0.02344,
        0.27344,
        0.03125,
        0.28125,
        0.03906,
        0.28906,
        0.04688,
        0.29688,
        0.05469,
        0.30469,
        0.0625,
        0.30469,
        0.07031,
        0.3125,
        0.07812,
        0.32031,
        0.08594,
        0.32812,
        0.09375,
        0.33594,
        0.10156,
        0.34375,
        0.10938,
        0.35156,
        0.11719,
        0.35938,
        0.11719,
        0.36719,
        0.125,
        0.375,
        0.13281,
        0.38281,
        0.14062,
        0.39062,
        0.14844,
        0.39844,
        0.15625,
        0.40625,
        0.16406,
        0.41406,
        0.17188,
        0.42188,
        0.17969,
        0.42969,
        0.1875,
        0.42969,
        0.19531,
        0.4375,
        0.20312,
        0.44531,
        0.21094,
        0.45312,
        0.21875,
        0.46094,
        0.22656,
        0.46875,
        0.23438
    ],
    "SoftwareVersions": "syngo MR B17",
    "SpacingBetweenSlices": 2.5,
    "StationName": "MASTER",
    "TxRefAmp": 124,
    "dcmmeta_affine": [
        [
            -1.25,
            2.5637925116228644e-10,
            0.0,
            109.90636444091797
        ],
        [
            2.5637925116228644e-10,
            1.25,
            0.0,
            -96.60795593261719
        ],
        [
            0.0,
            0.0,
            2.5,
            -70.02893829345703
        ],
        [
            0.0,
            0.0,
            0.0,
            1.0
        ]
    ],
    "dcmmeta_reorient_transform": [
        [
            0.0,
            -1.0,
            0.0,
            167.0
        ],
        [
            1.0,
            0.0,
            0.0,
            0.0
        ],
        [
            0.0,
            0.0,
            -1.0,
            63.0
        ],
        [
            0.0,
            0.0,
            0.0,
            1.0
        ]
    ],
    "dcmmeta_shape": [
        168,
        168,
        64
    ],
    "dcmmeta_slice_dim": 2,
    "dcmmeta_version": 0.6,
    "global": {
        "const": {
            "AcquisitionMatrix": [
                0,
                168,
                84,
                0
            ],
            "AcquisitionNumber": 1,
            "AngioFlag": "N",
            "BitsAllocated": 16,
            "BitsStored": 12,
            "Columns": 168,
            "EchoNumbers": 2,
            "EchoTime": 5.1,
            "EchoTrainLength": 1,
            "FlipAngle": 35.0,
            "HighBit": 11,
            "ImageOrientationPatient": [
                1.0,
                -2.051034e-10,
                0.0,
                2.051034e-10,
                1.0,
                0.0
            ],
            "ImageType": [
                "ORIGINAL",
                "PRIMARY",
                "P",
                "ND"
            ],
            "ImagedNucleus": "1H",
            "ImagingFrequency": 297.228962,
            "InPlanePhaseEncodingDirection": "ROW",
            "MRAcquisitionType": "2D",
            "MagneticFieldStrength": 6.98,
            "Manufacturer": "SIEMENS",
            "ManufacturerModelName": "Investigational_Device_7T",
            "Modality": "MR",
            "NumberOfAverages": 1.0,
            "NumberOfPhaseEncodingSteps": 63,
            "PercentPhaseFieldOfView": 100.0,
            "PercentSampling": 50.0,
            "PerformedProcedureStepStartTime": "115702.187000",
            "PhotometricInterpretation": "MONOCHROME2",
            "PixelBandwidth": 607.0,
            "PixelRepresentation": 0,
            "PixelSpacing": [
                1.25,
                1.25
            ],
            "ProtocolName": "gre_field_mapping",
            "RepetitionTime": 475.0,
            "RescaleIntercept": -4096.0,
            "RescaleSlope": 2.0,
            "RescaleType": "US",
            "Rows": 168,
            "SAR": 0.0,
            "SamplesPerPixel": 1,
            "ScanOptions": "PFP",
            "ScanningSequence": "GR",
            "SequenceName": "fm2d2r",
            "SequenceVariant": "SP",
            "SeriesDescription": "gre_field_mapping",
            "SeriesNumber": 14,
            "SeriesTime": "123346.828000",
            "SliceThickness": 2.5,
            "SoftwareVersions": "syngo MR B17",
            "SpacingBetweenSlices": 2.5,
            "SpecificCharacterSet": "ISO_IR 100",
            "StudyID": "2",
            "StudyTime": "115702.140000",
            "TransmitCoilName": "CFMM_8Tx32Rx",
            "VariableFlipAngleFlag": "N",
            "WindowCenterWidthExplanation": "Algo1",
            "dBdt": 0.0
        },
        "slices": {
            "AcquisitionTime": [
                "123241.155000",
                "123240.915000",
                "123241.162500",
                "123240.922500",
                "123241.170000",
                "123240.930000",
                "123241.177500",
                "123240.937500",
                "123241.185000",
                "123240.945000",
                "123241.192500",
                "123240.952500",
                "123241.200000",
                "123240.960000",
                "123241.207500",
                "123240.967500",
                "123241.215000",
                "123240.975000",
                "123241.220000",
                "123240.982500",
                "123241.227500",
                "123240.990000",
                "123241.235000",
                "123240.997500",
                "123241.242500",
                "123241.005000",
                "123241.250000",
                "123241.012500",
                "123241.257500",
                "123241.020000",
                "123241.265000",
                "123241.027500",
                "123241.272500",
                "123241.035000",
                "123241.280000",
                "123241.042500",
                "123241.287500",
                "123241.050000",
                "123241.295000",
                "123241.057500",
                "123241.302500",
                "123241.065000",
                "123241.310000",
                "123241.072500",
                "123241.317500",
                "123241.080000",
                "123241.325000",
                "123241.087500",
                "123241.332500",
                "123241.095000",
                "123241.340000",
                "123241.102500",
                "123241.347500",
                "123241.110000",
                "123241.355000",
                "123241.117500",
                "123241.362500",
                "123241.125000",
                "123241.370000",
                "123241.132500",
                "123241.377500",
                "123241.140000",
                "123241.385000",
                "123241.147500"
            ],
            "ContentTime": [
                "123346.921000",
                "123346.843000",
                "123346.921000",
                "123346.843000",
                "123346.921000",
                "123346.843000",
                "123346.921000",
                "123346.843000",
                "123346.937000",
                "123346.843000",
                "123346.937000",
                "123346.843000",
                "123346.937000",
                "123346.843000",
                "123346.937000",
                "123346.843000",
                "123346.937000",
                "123346.843000",
                "123346.937000",
                "123346.859000",
                "123346.937000",
                "123346.859000",
                "123346.937000",
                "123346.859000",
                "123346.937000",
                "123346.859000",
                "123346.953000",
                "123346.875000",
                "123346.953000",
                "123346.875000",
                "123346.953000",
                "123346.875000",
                "123346.953000",
                "123346.875000",
                "123346.953000",
                "123346.875000",
                "123346.953000",
                "123346.875000",
                "123346.953000",
                "123346.875000",
                "123346.953000",
                "123346.890000",
                "123346.968000",
                "123346.890000",
                "123346.968000",
                "123346.890000",
                "123346.968000",
                "123346.890000",
                "123346.968000",
                "123346.890000",
                "123346.968000",
                "123346.890000",
                "123346.968000",
                "123346.890000",
                "123346.984000",
                "123346.890000",
                "123346.984000",
                "123346.906000",
                "123346.984000",
                "123346.906000",
                "123346.984000",
                "123346.921000",
                "123346.984000",
                "123346.921000"
            ],
            "CsaImage.ICE_Dims": [
                "X_2_1_1_1_1_1_33_1_1_1_1_109",
                "X_2_1_1_1_1_1_1_1_1_2_1_109",
                "X_2_1_1_1_1_1_34_1_1_3_1_109",
                "X_2_1_1_1_1_1_2_1_1_4_1_109",
                "X_2_1_1_1_1_1_35_1_1_5_1_109",
                "X_2_1_1_1_1_1_3_1_1_6_1_109",
                "X_2_1_1_1_1_1_36_1_1_7_1_109",
                "X_2_1_1_1_1_1_4_1_1_8_1_109",
                "X_2_1_1_1_1_1_37_1_1_9_1_109",
                "X_2_1_1_1_1_1_5_1_1_10_1_109",
                "X_2_1_1_1_1_1_38_1_1_11_1_109",
                "X_2_1_1_1_1_1_6_1_1_12_1_109",
                "X_2_1_1_1_1_1_39_1_1_13_1_109",
                "X_2_1_1_1_1_1_7_1_1_14_1_109",
                "X_2_1_1_1_1_1_40_1_1_15_1_109",
                "X_2_1_1_1_1_1_8_1_1_16_1_109",
                "X_2_1_1_1_1_1_41_1_1_17_1_109",
                "X_2_1_1_1_1_1_9_1_1_18_1_109",
                "X_2_1_1_1_1_1_42_1_1_19_1_109",
                "X_2_1_1_1_1_1_10_1_1_20_1_109",
                "X_2_1_1_1_1_1_43_1_1_21_1_109",
                "X_2_1_1_1_1_1_11_1_1_22_1_109",
                "X_2_1_1_1_1_1_44_1_1_23_1_109",
                "X_2_1_1_1_1_1_12_1_1_24_1_109",
                "X_2_1_1_1_1_1_45_1_1_25_1_109",
                "X_2_1_1_1_1_1_13_1_1_26_1_109",
                "X_2_1_1_1_1_1_46_1_1_27_1_109",
                "X_2_1_1_1_1_1_14_1_1_28_1_109",
                "X_2_1_1_1_1_1_47_1_1_29_1_109",
                "X_2_1_1_1_1_1_15_1_1_30_1_109",
                "X_2_1_1_1_1_1_48_1_1_31_1_109",
                "X_2_1_1_1_1_1_16_1_1_32_1_109",
                "X_2_1_1_1_1_1_49_1_1_33_1_109",
                "X_2_1_1_1_1_1_17_1_1_34_1_109",
                "X_2_1_1_1_1_1_50_1_1_35_1_109",
                "X_2_1_1_1_1_1_18_1_1_36_1_109",
                "X_2_1_1_1_1_1_51_1_1_37_1_109",
                "X_2_1_1_1_1_1_19_1_1_38_1_109",
                "X_2_1_1_1_1_1_52_1_1_39_1_109",
                "X_2_1_1_1_1_1_20_1_1_40_1_109",
                "X_2_1_1_1_1_1_53_1_1_41_1_109",
                "X_2_1_1_1_1_1_21_1_1_42_1_109",
                "X_2_1_1_1_1_1_54_1_1_43_1_109",
                "X_2_1_1_1_1_1_22_1_1_44_1_109",
                "X_2_1_1_1_1_1_55_1_1_45_1_109",
                "X_2_1_1_1_1_1_23_1_1_46_1_109",
                "X_2_1_1_1_1_1_56_1_1_47_1_109",
                "X_2_1_1_1_1_1_24_1_1_48_1_109",
                "X_2_1_1_1_1_1_57_1_1_49_1_109",
                "X_2_1_1_1_1_1_25_1_1_50_1_109",
                "X_2_1_1_1_1_1_58_1_1_51_1_109",
                "X_2_1_1_1_1_1_26_1_1_52_1_109",
                "X_2_1_1_1_1_1_59_1_1_53_1_109",
                "X_2_1_1_1_1_1_27_1_1_54_1_109",
                "X_2_1_1_1_1_1_60_1_1_55_1_109",
                "X_2_1_1_1_1_1_28_1_1_56_1_109",
                "X_2_1_1_1_1_1_61_1_1_57_1_109",
                "X_2_1_1_1_1_1_29_1_1_58_1_109",
                "X_2_1_1_1_1_1_62_1_1_59_1_109",
                "X_2_1_1_1_1_1_30_1_1_60_1_109",
                "X_2_1_1_1_1_1_63_1_1_61_1_109",
                "X_2_1_1_1_1_1_31_1_1_62_1_109",
                "X_2_1_1_1_1_1_64_1_1_63_1_109",
                "X_2_1_1_1_1_1_32_1_1_64_1_109"
            ],
            "CsaImage.ProtocolSliceNumber": [
                0,
                1,
                2,
                3,
                4,
                5,
                6,
                7,
                8,
                9,
                10,
                11,
                12,
                13,
                14,
                15,
                16,
                17,
                18,
                19,
                20,
                21,
                22,
                23,
                24,
                25,
                26,
                27,
                28,
                29,
                30,
                31,
                32,
                33,
                34,
                35,
                36,
                37,
                38,
                39,
                40,
                41,
                42,
                43,
                44,
                45,
                46,
                47,
                48,
                49,
                50,
                51,
                52,
                53,
                54,
                55,
                56,
                57,
                58,
                59,
                60,
                61,
                62,
                63
            ],
            "CsaImage.SliceMeasurementDuration": [
                59135.0,
                59137.5,
                59135.0,
                59137.5,
                59135.0,
                59137.5,
                59135.0,
                59137.5,
                59135.0,
                59137.5,
                59135.0,
                59137.5,
                59135.0,
                59137.5,
                59135.0,
                59137.5,
                59135.0,
                59137.5,
                59137.5,
                59137.5,
                59137.5,
                59137.5,
                59137.5,
                59137.5,
                59137.5,
                59137.5,
                59137.5,
                59137.5,
                59137.5,
                59137.5,
                59137.5,
                59137.5,
                59137.5,
                59137.5,
                59137.5,
                59137.5,
                59137.5,
                59137.5,
                59137.5,
                59137.5,
                59137.5,
                59137.5,
                59137.5,
                59137.5,
                59137.5,
                59135.0,
                59137.5,
                59135.0,
                59137.5,
                59135.0,
                59137.5,
                59135.0,
                59137.5,
                59135.0,
                59137.5,
                59135.0,
                59137.5,
                59135.0,
                59137.5,
                59135.0,
                59137.5,
                59135.0,
                59137.5,
                59135.0
            ],
            "CsaImage.SlicePosition_PCS": [
                [
                    -109.90636399,
                    -112.14204166,
                    -70.02893829
                ],
                [
                    -109.90636399,
                    -112.14204166,
                    -67.52893829
                ],
                [
                    -109.90636399,
                    -112.14204166,
                    -65.02893829
                ],
                [
                    -109.90636399,
                    -112.14204166,
                    -62.52893829
                ],
                [
                    -109.90636399,
                    -112.14204166,
                    -60.02893829
                ],
                [
                    -109.90636399,
                    -112.14204166,
                    -57.52893829
                ],
                [
                    -109.90636399,
                    -112.14204166,
                    -55.02893829
                ],
                [
                    -109.90636399,
                    -112.14204166,
                    -52.52893829
                ],
                [
                    -109.90636399,
                    -112.14204166,
                    -50.02893829
                ],
                [
                    -109.90636399,
                    -112.14204166,
                    -47.52893829
                ],
                [
                    -109.90636399,
                    -112.14204166,
                    -45.02893829
                ],
                [
                    -109.90636399,
                    -112.14204166,
                    -42.52893829
                ],
                [
                    -109.90636399,
                    -112.14204166,
                    -40.02893829
                ],
                [
                    -109.90636399,
                    -112.14204166,
                    -37.52893829
                ],
                [
                    -109.90636399,
                    -112.14204166,
                    -35.02893829
                ],
                [
                    -109.90636399,
                    -112.14204166,
                    -32.52893829
                ],
                [
                    -109.90636399,
                    -112.14204166,
                    -30.0289402
                ],
                [
                    -109.90636399,
                    -112.14204166,
                    -27.5289402
                ],
                [
                    -109.90636399,
                    -112.14204166,
                    -25.0289402
                ],
                [
                    -109.90636399,
                    -112.14204166,
                    -22.5289402
                ],
                [
                    -109.90636399,
                    -112.14204166,
                    -20.0289402
                ],
                [
                    -109.90636399,
                    -112.14204166,
                    -17.5289402
                ],
                [
                    -109.90636399,
                    -112.14204166,
                    -15.02893925
                ],
                [
                    -109.90636399,
                    -112.14204166,
                    -12.52893925
                ],
                [
                    -109.90636399,
                    -112.14204166,
                    -10.02893925
                ],
                [
                    -109.90636399,
                    -112.14204166,
                    -7.52893972
                ],
                [
                    -109.90636399,
                    -112.14204166,
                    -5.02893972
                ],
                [
                    -109.90636399,
                    -112.14204166,
                    -2.52893972
                ],
                [
                    -109.90636399,
                    -112.14204166,
                    -0.02893965
                ],
                [
                    -109.90636399,
                    -112.14204166,
                    2.47106028
                ],
                [
                    -109.90636399,
                    -112.14204166,
                    4.97106028
                ],
                [
                    -109.90636399,
                    -112.14204166,
                    7.47106028
                ],
                [
                    -109.90636399,
                    -112.14204166,
                    9.97106075
                ],
                [
                    -109.90636399,
                    -112.14204166,
                    12.47106075
                ],
                [
                    -109.90636399,
                    -112.14204166,
                    14.97106075
                ],
                [
                    -109.90636399,
                    -112.14204166,
                    17.4710598
                ],
                [
                    -109.90636399,
                    -112.14204166,
                    19.9710598
                ],
                [
                    -109.90636399,
                    -112.14204166,
                    22.4710598
                ],
                [
                    -109.90636399,
                    -112.14204166,
                    24.9710598
                ],
                [
                    -109.90636399,
                    -112.14204166,
                    27.4710598
                ],
                [
                    -109.90636399,
                    -112.14204166,
                    29.9710598
                ],
                [
                    -109.90636399,
                    -112.14204166,
                    32.47106171
                ],
                [
                    -109.90636399,
                    -112.14204166,
                    34.97106171
                ],
                [
                    -109.90636399,
                    -112.14204166,
                    37.47106171
                ],
                [
                    -109.90636399,
                    -112.14204166,
                    39.97106171
                ],
                [
                    -109.90636399,
                    -112.14204166,
                    42.47106171
                ],
                [
                    -109.90636399,
                    -112.14204166,
                    44.97106171
                ],
                [
                    -109.90636399,
                    -112.14204166,
                    47.47106171
                ],
                [
                    -109.90636399,
                    -112.14204166,
                    49.97106171
                ],
                [
                    -109.90636399,
                    -112.14204166,
                    52.47106171
                ],
                [
                    -109.90636399,
                    -112.14204166,
                    54.97106171
                ],
                [
                    -109.90636399,
                    -112.14204166,
                    57.47106171
                ],
                [
                    -109.90636399,
                    -112.14204166,
                    59.97106171
                ],
                [
                    -109.90636399,
                    -112.14204166,
                    62.47106171
                ],
                [
                    -109.90636399,
                    -112.14204166,
                    64.97106171
                ],
                [
                    -109.90636399,
                    -112.14204166,
                    67.47106171
                ],
                [
                    -109.90636399,
                    -112.14204166,
                    69.97106171
                ],
                [
                    -109.90636399,
                    -112.14204166,
                    72.47106171
                ],
                [
                    -109.90636399,
                    -112.14204166,
                    74.97106171
                ],
                [
                    -109.90636399,
                    -112.14204166,
                    77.47106171
                ],
                [
                    -109.90636399,
                    -112.14204166,
                    79.97106171
                ],
                [
                    -109.90636399,
                    -112.14204166,
                    82.47106171
                ],
                [
                    -109.90636399,
                    -112.14204166,
                    84.97106171
                ],
                [
                    -109.90636399,
                    -112.14204166,
                    87.47106171
                ]
            ],
            "CsaImage.TimeAfterStart": [
                0.7175,
                0.4775,
                0.725,
                0.485,
                0.7325,
                0.4925,
                0.74,
                0.5,
                0.7475,
                0.5075,
                0.755,
                0.515,
                0.7625,
                0.5225,
                0.77,
                0.53,
                0.7775,
                0.5375,
                0.785,
                0.545,
                0.7925,
                0.5525,
                0.8,
                0.56,
                0.8075,
                0.5675,
                0.815,
                0.575,
                0.82,
                0.5825,
                0.8275,
                0.59,
                0.835,
                0.5975,
                0.8425,
                0.605,
                0.85,
                0.6125,
                0.8575,
                0.62,
                0.865,
                0.6275,
                0.8725,
                0.635,
                0.88,
                0.6425,
                0.8875,
                0.65,
                0.895,
                0.6575,
                0.9025,
                0.665,
                0.91,
                0.6725,
                0.9175,
                0.68,
                0.925,
                0.6875,
                0.9325,
                0.695,
                0.94,
                0.7025,
                0.9475,
                0.71
            ],
            "ImagePositionPatient": [
                [
                    -109.90636398562,
                    -112.14204166166,
                    -70.028938293457
                ],
                [
                    -109.90636398562,
                    -112.14204166166,
                    -67.528938293457
                ],
                [
                    -109.90636398562,
                    -112.14204166166,
                    -65.028938293457
                ],
                [
                    -109.90636398562,
                    -112.14204166166,
                    -62.528938293457
                ],
                [
                    -109.90636398562,
                    -112.14204166166,
                    -60.028938293457
                ],
                [
                    -109.90636398562,
                    -112.14204166166,
                    -57.528938293457
                ],
                [
                    -109.90636398562,
                    -112.14204166166,
                    -55.028938293457
                ],
                [
                    -109.90636398562,
                    -112.14204166166,
                    -52.528938293457
                ],
                [
                    -109.90636398562,
                    -112.14204166166,
                    -50.028938293457
                ],
                [
                    -109.90636398562,
                    -112.14204166166,
                    -47.528938293457
                ],
                [
                    -109.90636398562,
                    -112.14204166166,
                    -45.028938293457
                ],
                [
                    -109.90636398562,
                    -112.14204166166,
                    -42.528938293457
                ],
                [
                    -109.90636398562,
                    -112.14204166166,
                    -40.028938293457
                ],
                [
                    -109.90636398562,
                    -112.14204166166,
                    -37.528938293457
                ],
                [
                    -109.90636398562,
                    -112.14204166166,
