{
  "AcquisitionMatrixPE": 104,
  "AcquisitionNumber": 1,
  "AcquisitionTime": "14:05:52.675000",
  "BandwidthPerPixelPhaseEncode": 43.054,
  "BaseResolution": 104,
  "CoilString": "C:E1_2",
  "ConversionSoftware": "dcm2niix",
  "ConversionSoftwareVersion": "v1.0.20191031",
  "DerivedVendorReportedEchoSpacing": 0.000669999,
  "DeviceSerialNumber": "18932",
  "DwellTime": 2.8e-06,
  "EchoTime": 0.02,
  "EffectiveEchoSpacing": 0.000223333,
  "FlipAngle": 30,
  "ImageComments": "Unaliased_MB2_PE2",
  "ImageOrientationPatientDICOM": [1, 0, 0, 0, 0.975535, -0.219846],
  "ImageType": [
    "ORIGINAL",
    "PRIMARY",
    "M",
    "MB",
    "ND",
    "MOSAIC"
],
  "ImagingFrequency": 297.228,
  "InPlanePhaseEncodingDirectionDICOM": "COL",
  "InstitutionAddress": "Richmond_Street_North_1151_London_409EF2_Ontario_CA_N6A_5B7",
  "InstitutionName": "Robarts_Reserch_Institute",
  "InstitutionalDepartmentName": "Department",
  "MRAcquisitionType": "2D",
  "MagneticFieldStrength": 6.98,
  "Manufacturer": "Siemens",
  "ManufacturersModelName": "Investigational_Device_7T",
  "Modality": "MR",
  "MultibandAccelerationFactor": 2,
  "ParallelReductionFactorInPlane": 3,
  "PartialFourier": 0.875,
  "PatientPosition": "HFS",
  "PercentPhaseFOV": 100,
  "PhaseEncodingDirection": "j-",
  "PhaseEncodingSteps": 91,
  "PhaseResolution": 1,
  "PixelBandwidth": 1717,
  "ProcedureStepDescription": "Diedrichsen_SeqRep4",
  "ProtocolName": "mbep2d_bold_mb2_p3_AP_2iso",
  "PulseSequenceDetails": "%CustomerSeq%_cmrr_mbep2d_bold",
  "ReceiveCoilName": "CFMM_8Tx32Rx",
  "ReconMatrixPE": 104,
  "RefLinesPE": 36,
  "RepetitionTime": 1,
  "ScanOptions": "PFP_FS",
  "ScanningSequence": "EP",
  "SequenceName": "epfid2d1_104",
  "SequenceVariant": "SK_SS",
  "SeriesDescription": "mbep2d_bold_mb2_p3_AP_2iso",
  "SeriesNumber": 36,
  "ShimSetting": [-74, 2049, 366, 308, 96, -127, -259, -116],
  "SliceThickness": 2,
  "SliceTiming": [0, 0.2275, 0.455, 0.6825, 0.91, 0.135, 0.365, 0.5925, 0.82, 0.045, 0.2725, 0.5, 0.7275, 0.9575, 0.1825, 0.41, 0.6375, 0.865, 0.09, 0.3175, 0.5475, 0.775, 0, 0.2275, 0.455, 0.6825, 0.91, 0.135, 0.365, 0.5925, 0.82, 0.045, 0.2725, 0.5, 0.7275, 0.9575, 0.1825, 0.41, 0.6375, 0.865, 0.09, 0.3175, 0.5475, 0.775],
  "SoftwareVersions": "syngo_MR_B17",
  "SpacingBetweenSlices": 2,
  "StationName": "MASTER",
  "TaskName": "dsp",
  "TotalReadoutTime": 0.0230033,
  "TxRefAmp": 120,
  "dcmmeta_affine": [
    [-2.0, 0.0, 0.0, 105.4527816772461],
    [0.0, 1.9510691165924072, -0.4396924078464508, -102.40196990966797],
    [0.0, 0.4396924078464508, 1.9510691165924072, -65.14813232421875],
    [0.0, 0.0, 0.0, 1.0]
],
  "dcmmeta_reorient_transform": [
    [0.0, -1.0, 0.0, 103.0],
    [1.0, 0.0, 0.0, 0.0],
    [0.0, 0.0, 1.0, 0.0],
    [0.0, 0.0, 0.0, 1.0]
],
  "dcmmeta_shape": [104, 104, 44, 330],
  "dcmmeta_slice_dim": 2,
  "dcmmeta_version": 0.6,
  "global": {
    "const": {
      "AcquisitionMatrix": [104, 0, 0, 104],
      "AngioFlag": "N",
      "BitsAllocated": 16,
      "BitsStored": 12,
      "Columns": 728,
      "EchoNumbers": 1,
      "EchoTime": 20.0,
      "EchoTrainLength": 1,
      "FlipAngle": 30.0,
      "HighBit": 11,
      "ImageOrientationPatient": [1.0, 0.0, 0.0, 0.0, 0.97553454431481, -0.2198462027157],
      "ImagePositionPatient": [-729.45278453827, -707.29169876777, 117.32421584434],
      "ImageType": [
        "ORIGINAL",
        "PRIMARY",
        "M",
        "MB",
        "ND",
        "MOSAIC"
],
      "ImagedNucleus": "1H",
      "ImagingFrequency": 297.228117,
      "InPlanePhaseEncodingDirection": "COL",
      "MRAcquisitionType": "2D",
      "MagneticFieldStrength": 6.98,
      "Manufacturer": "SIEMENS",
      "ManufacturerModelName": "Investigational_Device_7T",
      "Modality": "MR",
      "NumberOfAverages": 1.0,
      "NumberOfPhaseEncodingSteps": 91,
      "PercentPhaseFieldOfView": 100.0,
      "PercentSampling": 100.0,
      "PerformedProcedureStepStartTime": "124150.406000",
      "PhotometricInterpretation": "MONOCHROME2",
      "PixelBandwidth": 1717.0,
      "PixelRepresentation": 0,
      "PixelSpacing": [2.0, 2.0],
      "ProtocolName": "mbep2d_bold_mb2_p3_AP 2iso",
      "RepetitionTime": 1000.0,
      "Rows": 728,
      "SAR": 0.0,
      "SamplesPerPixel": 1,
      "ScanOptions": [
        "PFP",
        "FS"
],
      "ScanningSequence": "EP",
      "SequenceName": "epfid2d1_104",
      "SequenceVariant": [
        "SK",
        "SS"
],
      "SeriesDescription": "mbep2d_bold_mb2_p3_AP 2iso",
      "SeriesNumber": 36,
      "SeriesTime": "140624.171000",
      "SliceLocation": -41.041568745608,
      "SliceThickness": 2.0,
      "SmallestImagePixelValue": 0,
      "SoftwareVersions": "syngo MR B17",
      "SpacingBetweenSlices": 1.9999999733392,
      "SpecificCharacterSet": "ISO_IR 100",
      "StudyID": "1",
      "StudyTime": "124150.343000",
      "TransmitCoilName": "CFMM_8Tx32Rx",
      "VariableFlipAngleFlag": "N",
      "WindowCenterWidthExplanation": "Algo1",
      "dBdt": 0.0},
    "slices": {}
  },
  "time": {
    "samples": {
      "AcquisitionNumber": [1, 2, 3, 4, 5, 6, 7, 8, 9, 10, 11, 12, 13, 14, 15, 16, 17, 18, 19, 20, 21, 22, 23, 24, 25, 26, 27, 28, 29, 30, 31, 32, 33, 34, 35, 36, 37, 38, 39, 40, 41, 42, 43, 44, 45, 46, 47, 48, 49, 50, 51, 52, 53, 54, 55, 56, 57, 58, 59, 60, 61, 62, 63, 64, 65, 66, 67, 68, 69, 70, 71, 72, 73, 74, 75, 76, 77, 78, 79, 80, 81, 82, 83, 84, 85, 86, 87, 88, 89, 90, 91, 92, 93, 94, 95, 96, 97, 98, 99, 100, 101, 102, 103, 104, 105, 106, 107, 108, 109, 110, 111, 112, 113, 114, 115, 116, 117, 118, 119, 120, 121, 122, 123, 124, 125, 126, 127, 128, 129, 130, 131, 132, 133, 134, 135, 136, 137, 138, 139, 140, 141, 142, 143, 144, 145, 146, 147, 148, 149, 150, 151, 152, 153, 154, 155, 156, 157, 158, 159, 160, 161, 162, 163, 164, 165, 166, 167, 168, 169, 170, 171, 172, 173, 174, 175, 176, 177, 178, 179, 180, 181, 182, 183, 184, 185, 186, 187, 188, 189, 190, 191, 192, 193, 194, 195, 196, 197, 198, 199, 200, 201, 202, 203, 204, 205, 206, 207, 208, 209, 210, 211, 212, 213, 214, 215, 216, 217, 218, 219, 220, 221, 222, 223, 224, 225, 226, 227, 228, 229, 230, 231, 232, 233, 234, 235, 236, 237, 238, 239, 240, 241, 242, 243, 244, 245, 246, 247, 248, 249, 250, 251, 252, 253, 254, 255, 256, 257, 258, 259, 260, 261, 262, 263, 264, 265, 266, 267, 268, 269, 270, 271, 272, 273, 274, 275, 276, 277, 278, 279, 280, 281, 282, 283, 284, 285, 286, 287, 288, 289, 290, 291, 292, 293, 294, 295, 296, 297, 298, 299, 300, 301, 302, 303, 304, 305, 306, 307, 308, 309, 310, 311, 312, 313, 314, 315, 316, 317, 318, 319, 320, 321, 322, 323, 324, 325, 326, 327, 328, 329, 330],
      "AcquisitionTime": ["140552.675000", "140553.677500", "140554.682500", "140555.685000", "140556.690000", "140557.695000", "140558.697500", "140559.702500", "140600.705000", "140601.710000", "140602.715000", "140603.717500", "140604.722500", "140605.725000", "140606.730000", "140607.735000", "140608.737500", "140609.742500", "140610.745000", "140611.750000", "140612.755000", "140613.757500", "140614.762500", "140615.767500", "140616.770000", "140617.775000", "140618.777500", "140619.782500", "140620.787500", "140621.790000", "140622.795000", "140623.797500", "140624.802500", "140625.807500", "140626.810000", "140627.815000", "140628.817500", "140629.822500", "140630.827500", "140631.830000", "140632.835000", "140633.837500", "140634.842500", "140635.847500", "140636.850000", "140637.855000", "140638.857500", "140639.862500", "140640.867500", "140641.870000", "140642.875000", "140643.877500", "140644.882500", "140645.887500", "140646.890000", "140647.895000", "140648.900000", "140649.902500", "140650.907500", "140651.910000", "140652.915000", "140653.920000", "140654.922500", "140655.927500", "140656.930000", "140657.935000", "140658.940000", "140659.942500", "140700.947500", "140701.950000", "140702.955000", "140703.960000", "140704.962500", "140705.967500", "140706.970000", "140707.975000", "140708.980000", "140709.982500", "140710.987500", "140711.990000", "140712.995000", "140714.000000", "140715.002500", "140716.007500", "140717.012500", "140718.015000", "140719.020000", "140720.022500", "140721.027500", "140722.032500", "140723.035000", "140724.040000", "140725.042500", "140726.047500", "140727.052500", "140728.055000", "140729.060000", "140730.062500", "140731.067500", "140732.072500", "140733.075000", "140734.080000", "140735.082500", "140736.087500", "140737.092500", "140738.095000", "140739.100000", "140740.102500", "140741.107500", "140742.112500", "140743.115000", "140744.120000", "140745.122500", "140746.127500", "140747.132500", "140748.135000", "140749.140000", "140750.145000", "140751.147500", "140752.152500", "140753.155000", "140754.160000", "140755.165000", "140756.167500", "140757.172500", "140758.175000", "140759.180000", "140800.185000", "140801.187500", "140802.192500", "140803.195000", "140804.200000", "140805.205000", "140806.207500", "140807.212500", "140808.215000", "140809.220000", "140810.225000", "140811.227500", "140812.232500", "140813.235000", "140814.240000", "140815.245000", "140816.247500", "140817.252500", "140818.255000", "140819.260000", "140820.265000", "140821.267500", "140822.272500", "140823.277500", "140824.280000", "140825.285000", "140826.287500", "140827.292500", "140828.297500", "140829.300000", "140830.305000", "140831.307500", "140832.312500", "140833.317500", "140834.320000", "140835.325000", "140836.327500", "140837.332500", "140838.337500", "140839.340000", "140840.345000", "140841.347500", "140842.352500", "140843.357500", "140844.360000", "140845.365000", "140846.367500", "140847.372500", "140848.377500", "140849.380000", "140850.385000", "140851.390000", "140852.392500", "140853.397500", "140854.400000", "140855.405000", "140856.410000", "140857.412500", "140858.417500", "140859.420000", "140900.425000", "140901.430000", "140902.432500", "140903.437500", "140904.440000", "140905.445000", "140906.450000", "140907.452500", "140908.457500", "140909.460000", "140910.465000", "140911.470000", "140912.472500", "140913.477500", "140914.480000", "140915.485000", "140916.490000", "140917.492500", "140918.497500", "140919.500000", "140920.505000", "140921.510000", "140922.512500", "140923.517500", "140924.522500", "140925.525000", "140926.530000", "140927.532500", "140928.537500", "140929.542500", "140930.545000", "140931.550000", "140932.552500", "140933.557500", "140934.562500", "140935.565000", "140936.570000", "140937.572500", "140938.577500", "140939.582500", "140940.585000", "140941.590000", "140942.592500", "140943.597500", "140944.602500", "140945.605000", "140946.610000", "140947.612500", "140948.617500", "140949.622500", "140950.625000", "140951.630000", "140952.635000", "140953.637500", "140954.642500", "140955.645000", "140956.650000", "140957.655000", "140958.657500", "140959.662500", "141000.665000", "141001.670000", "141002.675000", "141003.677500", "141004.682500", "141005.685000", "141006.690000", "141007.695000", "141008.697500", "141009.702500", "141010.705000", "141011.710000", "141012.715000", "141013.717500", "141014.722500", "141015.725000", "141016.730000", "141017.735000", "141018.737500", "141019.742500", "141020.745000", "141021.750000", "141022.755000", "141023.757500", "141024.762500", "141025.767500", "141026.770000", "141027.775000", "141028.777500", "141029.782500", "141030.787500", "141031.790000", "141032.795000", "141033.797500", "141034.802500", "141035.807500", "141036.810000", "141037.815000", "141038.817500", "141039.822500", "141040.827500", "141041.830000", "141042.835000", "141043.837500", "141044.842500", "141045.847500", "141046.850000", "141047.855000", "141048.857500", "141049.862500", "141050.867500", "141051.870000", "141052.875000", "141053.877500", "141054.882500", "141055.887500", "141056.890000", "141057.895000", "141058.900000", "141059.902500", "141100.907500", "141101.910000", "141102.915000", "141103.920000", "141104.922500", "141105.927500", "141106.930000", "141107.935000", "141108.940000", "141109.942500", "141110.947500", "141111.950000", "141112.955000", "141113.960000", "141114.962500", "141115.967500", "141116.970000", "141117.975000", "141118.980000", "141119.982500", "141120.987500", "141121.990000", "141122.995000"],
      "ContentTime": ["140624.171000", "140624.187000", "140624.187000", "140624.187000", "140624.187000", "140624.187000", "140624.187000", "140624.187000", "140624.203000", "140624.203000", "140624.203000", "140624.203000", "140624.203000", "140624.218000", "140624.218000", "140624.218000", "140624.218000", "140624.218000", "140624.218000", "140624.234000", "140624.234000", "140624.234000", "140624.234000", "140624.234000", "140624.234000", "140624.234000", "140624.250000", "140624.250000", "140624.250000", "140624.250000", "140644.140000", "140644.140000", "140644.140000", "140644.140000", "140644.140000", "140644.156000", "140644.156000", "140644.156000", "140644.156000", "140644.171000", "140644.171000", "140644.171000", "140644.171000", "140644.171000", "140644.171000", "140644.171000", "140644.187000", "140644.187000", "140644.187000", "140644.187000", "140704.140000", "140704.140000", "140704.140000", "140704.140000", "140704.156000", "140704.156000", "140704.156000", "140704.156000", "140704.156000", "140704.156000", "140704.156000", "140704.156000", "140704.171000", "140704.171000", "140704.171000", "140704.171000", "140704.171000", "140704.171000", "140704.171000", "140704.187000", "140724.140000", "140724.140000", "140724.140000", "140724.140000", "140724.140000", "140724.156000", "140724.156000", "140724.156000", "140724.156000", "140724.156000", "140724.156000", "140724.171000", "140724.171000", "140724.171000", "140724.171000", "140724.171000", "140724.171000", "140724.171000", "140724.171000", "140724.187000", "140744.140000", "140744.140000", "140744.140000", "140744.140000", "140744.140000", "140744.140000", "140744.156000", "140744.156000", "140744.156000", "140744.156000", "140744.156000", "140744.171000", "140744.171000", "140744.171000", "140744.171000", "140744.171000", "140744.171000", "140744.187000", "140744.187000", "140744.187000", "140804.140000", "140804.156000", "140804.156000", "140804.156000", "140804.156000", "140804.156000", "140804.156000", "140804.171000", "140804.171000", "140804.171000", "140804.171000", "140804.171000", "140804.187000", "140804.187000", "140804.187000", "140804.187000", "140804.187000", "140804.187000", "140804.203000", "140804.203000", "140824.140000", "140824.140000", "140824.140000", "140824.140000", "140824.140000", "140824.140000", "140824.156000", "140824.156000", "140824.156000", "140824.156000", "140824.156000", "140824.171000", "140824.171000", "140824.171000", "140824.171000", "140824.171000", "140824.171000", "140824.171000", "140824.187000", "140824.187000", "140844.140000", "140844.140000", "140844.140000", "140844.140000", "140844.140000", "140844.140000", "140844.156000", "140844.156000", "140844.156000", "140844.156000", "140844.156000", "140844.156000", "140844.156000", "140844.171000", "140844.171000", "140844.171000", "140844.171000", "140844.171000", "140844.171000", "140844.187000", "140904.140000", "140904.140000", "140904.140000", "140904.140000", "140904.140000", "140904.156000", "140904.156000", "140904.156000", "140904.156000", "140904.156000", "140904.156000", "140904.156000", "140904.171000", "140904.171000", "140904.171000", "140904.171000", "140904.171000", "140904.171000", "140904.171000", "140904.187000", "140924.140000", "140924.140000", "140924.140000", "140924.140000", "140924.140000", "140924.140000", "140924.156000", "140924.156000", "140924.156000", "140924.156000", "140924.156000", "140924.156000", "140924.156000", "140924.171000", "140924.171000", "140924.171000", "140924.171000", "140924.171000", "140924.171000", "140924.171000", "140944.140000", "140944.140000", "140944.140000", "140944.140000", "140944.156000", "140944.156000", "140944.156000", "140944.156000", "140944.156000", "140944.156000", "140944.156000", "140944.171000", "140944.171000", "140944.171000", "140944.171000", "140944.171000", "140944.171000", "140944.171000", "140944.171000", "140944.187000", "141004.140000", "141004.140000", "141004.140000", "141004.140000", "141004.140000", "141004.140000", "141004.156000", "141004.156000", "141004.156000", "141004.156000", "141004.156000", "141004.156000", "141004.171000", "141004.171000", "141004.171000", "141004.171000", "141004.171000", "141004.171000", "141004.187000", "141004.187000", "141024.140000", "141024.140000", "141024.140000", "141024.140000", "141024.140000", "141024.140000", "141024.156000", "141024.156000", "141024.156000", "141024.156000", "141024.156000", "141024.156000", "141024.156000", "141024.171000", "141024.171000", "141024.171000", "141024.171000", "141024.171000", "141024.171000", "141024.171000", "141044.140000", "141044.140000", "141044.140000", "141044.140000", "141044.156000", "141044.156000", "141044.156000", "141044.156000", "141044.156000", "141044.156000", "141044.171000", "141044.171000", "141044.171000", "141044.171000", "141044.171000", "141044.171000", "141044.171000", "141044.187000", "141044.187000", "141044.187000", "141104.140000", "141104.140000", "141104.140000", "141104.140000", "141104.140000", "141104.140000", "141104.156000", "141104.156000", "141104.156000", "141104.156000", "141104.156000", "141104.156000", "141104.156000", "141104.171000", "141104.171000", "141104.171000", "141104.171000", "141104.171000", "141104.171000", "141104.171000", "141128.750000", "141128.750000", "141128.750000", "141128.750000", "141128.750000", "141128.750000", "141128.750000", "141128.765000", "141128.765000", "141128.765000", "141128.765000", "141128.765000", "141128.765000", "141128.765000", "141128.781000", "141128.781000", "141128.781000", "141128.781000", "141128.781000", "141128.781000"],
      "InstanceCreationTime": ["140624.171000", "140624.187000", "140624.187000", "140624.187000", "140624.187000", "140624.187000", "140624.187000", "140624.187000", "140624.203000", "140624.203000", "140624.203000", "140624.203000", "140624.203000", "140624.218000", "140624.218000", "140624.218000", "140624.218000", "140624.218000", "140624.218000", "140624.234000", "140624.234000", "140624.234000", "140624.234000", "140624.234000", "140624.234000", "140624.234000", "140624.250000", "140624.250000", "140624.250000", "140624.250000", "140644.140000", "140644.140000", "140644.140000", "140644.140000", "140644.140000", "140644.156000", "140644.156000", "140644.156000", "140644.156000", "140644.171000", "140644.171000", "140644.171000", "140644.171000", "140644.171000", "140644.171000", "140644.171000", "140644.187000", "140644.187000", "140644.187000", "140644.187000", "140704.140000", "140704.140000", "140704.140000", "140704.140000", "140704.156000", "140704.156000", "140704.156000", "140704.156000", "140704.156000", "140704.156000", "140704.156000", "140704.156000", "140704.171000", "140704.171000", "140704.171000", "140704.171000", "140704.171000", "140704.171000", "140704.171000", "140704.187000", "140724.140000", "140724.140000", "140724.140000", "140724.140000", "140724.140000", "140724.156000", "140724.156000", "140724.156000", "140724.156000", "140724.156000", "140724.156000", "140724.171000", "140724.171000", "140724.171000", "140724.171000", "140724.171000", "140724.171000", "140724.171000", "140724.171000", "140724.187000", "140744.140000", "140744.140000", "140744.140000", "140744.140000", "140744.140000", "140744.140000", "140744.156000", "140744.156000", "140744.156000", "140744.156000", "140744.156000", "140744.171000", "140744.171000", "140744.171000", "140744.171000", "140744.171000", "140744.171000", "140744.187000", "140744.187000", "140744.187000", "140804.140000", "140804.156000", "140804.156000", "140804.156000", "140804.156000", "140804.156000", "140804.156000", "140804.171000", "140804.171000", "140804.171000", "140804.171000", "140804.171000", "140804.187000", "140804.187000", "140804.187000", "140804.187000", "140804.187000", "140804.187000", "140804.203000", "140804.203000", "140824.140000", "140824.140000", "140824.140000", "140824.140000", "140824.140000", "140824.140000", "140824.156000", "140824.156000", "140824.156000", "140824.156000", "140824.156000", "140824.171000", "140824.171000", "140824.171000", "140824.171000", "140824.171000", "140824.171000", "140824.171000", "140824.187000", "140824.187000", "140844.140000", "140844.140000", "140844.140000", "140844.140000", "140844.140000", "140844.140000", "140844.156000", "140844.156000", "140844.156000", "140844.156000", "140844.156000", "140844.156000", "140844.156000", "140844.171000", "140844.171000", "140844.171000", "140844.171000", "140844.171000", "140844.171000", "140844.187000", "140904.140000", "140904.140000", "140904.140000", "140904.140000", "140904.140000", "140904.156000", "140904.156000", "140904.156000", "140904.156000", "140904.156000", "140904.156000", "140904.156000", "140904.171000", "140904.171000", "140904.171000", "140904.171000", "140904.171000", "140904.171000", "140904.171000", "140904.187000", "140924.140000", "140924.140000", "140924.140000", "140924.140000", "140924.140000", "140924.140000", "140924.156000", "140924.156000", "140924.156000", "140924.156000", "140924.156000", "140924.156000", "140924.156000", "140924.171000", "140924.171000", "140924.171000", "140924.171000", "140924.171000", "140924.171000", "140924.171000", "140944.140000", "140944.140000", "140944.140000", "140944.140000", "140944.156000", "140944.156000", "140944.156000", "140944.156000", "140944.156000", "140944.156000", "140944.156000", "140944.171000", "140944.171000", "140944.171000", "140944.171000", "140944.171000", "140944.171000", "140944.171000", "140944.171000", "140944.187000", "141004.140000", "141004.140000", "141004.140000", "141004.140000", "141004.140000", "141004.140000", "141004.156000", "141004.156000", "141004.156000", "141004.156000", "141004.156000", "141004.156000", "141004.171000", "141004.171000", "141004.171000", "141004.171000", "141004.171000", "141004.171000", "141004.187000", "141004.187000", "141024.140000", "141024.140000", "141024.140000", "141024.140000", "141024.140000", "141024.140000", "141024.156000", "141024.156000", "141024.156000", "141024.156000", "141024.156000", "141024.156000", "141024.156000", "141024.171000", "141024.171000", "141024.171000", "141024.171000", "141024.171000", "141024.171000", "141024.171000", "141044.140000", "141044.140000", "141044.140000", "141044.140000", "141044.156000", "141044.156000", "141044.156000", "141044.156000", "141044.156000", "141044.156000", "141044.171000", "141044.171000", "141044.171000", "141044.171000", "141044.171000", "141044.171000", "141044.171000", "141044.187000", "141044.187000", "141044.187000", "141104.140000", "141104.140000", "141104.140000", "141104.140000", "141104.140000", "141104.140000", "141104.156000", "141104.156000", "141104.156000", "141104.156000", "141104.156000", "141104.156000", "141104.156000", "141104.171000", "141104.171000", "141104.171000", "141104.171000", "141104.171000", "141104.171000", "141104.171000", "141128.750000", "141128.750000", "141128.750000", "141128.750000", "141128.750000", "141128.750000", "141128.750000", "141128.765000", "141128.765000", "141128.765000", "141128.765000", "141128.765000", "141128.765000", "141128.765000", "141128.781000", "141128.781000", "141128.781000", "141128.781000", "141128.781000", "141128.781000"],
      "InstanceNumber": [1, 2, 3, 4, 5, 6, 7, 8, 9, 10, 11, 12, 13, 14, 15, 16, 17, 18, 19, 20, 21, 22, 23, 24, 25, 26, 27, 28, 29, 30, 31, 32, 33, 34, 35, 36, 37, 38, 39, 40, 41, 42, 43, 44, 45, 46, 47, 48, 49, 50, 51, 52, 53, 54, 55, 56, 57, 58, 59, 60, 61, 62, 63, 64, 65, 66, 67, 68, 69, 70, 71, 72, 73, 74, 75, 76, 77, 78, 79, 80, 81, 82, 83, 84, 85, 86, 87, 88, 89, 90, 91, 92, 93, 94, 95, 96, 97, 98, 99, 100, 101, 102, 103, 104, 105, 106, 107, 108, 109, 110, 111, 112, 113, 114, 115, 116, 117, 118, 119, 120, 121, 122, 123, 124, 125, 126, 127, 128, 129, 130, 131, 132, 133, 134, 135, 136, 137, 138, 139, 140, 141, 142, 143, 144, 145, 146, 147, 148, 149, 150, 151, 152, 153, 154, 155, 156, 157, 158, 159, 160, 161, 162, 163, 164, 165, 166, 167, 168, 169, 170, 171, 172, 173, 174, 175, 176, 177, 178, 179, 180, 181, 182, 183, 184, 185, 186, 187, 188, 189, 190, 191, 192, 193, 194, 195, 196, 197, 198, 199, 200, 201, 202, 203, 204, 205, 206, 207, 208, 209, 210, 211, 212, 213, 214, 215, 216, 217, 218, 219, 220, 221, 222, 223, 224, 225, 226, 227, 228, 229, 230, 231, 232, 233, 234, 235, 236, 237, 238, 239, 240, 241, 242, 243, 244, 245, 246, 247, 248, 249, 250, 251, 252, 253, 254, 255, 256, 257, 258, 259, 260, 261, 262, 263, 264, 265, 266, 267, 268, 269, 270, 271, 272, 273, 274, 275, 276, 277, 278, 279, 280, 281, 282, 283, 284, 285, 286, 287, 288, 289, 290, 291, 292, 293, 294, 295, 296, 297, 298, 299, 300, 301, 302, 303, 304, 305, 306, 307, 308, 309, 310, 311, 312, 313, 314, 315, 316, 317, 318, 319, 320, 321, 322, 323, 324, 325, 326, 327, 328, 329, 330],
      "LargestImagePixelValue": [1677, 1633, 1684, 1639, 1591, 1632, 1622, 1663, 1626, 1672, 1601, 1654, 1660, 1610, 1659, 1599, 1640, 1595, 1655, 1607, 1612, 1582, 1591, 1643, 1627, 1599, 1632, 1630, 1654, 1608, 1653, 1624, 1596, 1646, 1590, 1614, 1621, 1647, 1647, 1611, 1635, 1599, 1644, 1634, 1630, 1616, 1599, 1671, 1655, 1664, 1624, 1632, 1661, 1598, 1660, 1610, 1593, 1642, 1638, 1654, 1634, 1612, 1693, 1648, 1628, 1670, 1597, 1646, 1685, 1585, 1642, 1543, 1650, 1607, 1606, 1635, 1606, 1617, 1625, 1604, 1599, 1597, 1604, 1574, 1620, 1572, 1550, 1605, 1639, 1630, 1610, 1625, 1602, 1599, 1616, 1614, 1571, 1649, 1632, 1634, 1585, 1645, 1601, 1674, 1608, 1566, 1600, 1565, 1645, 1593, 1578, 1618, 1585, 1597, 1631, 1570, 1592, 1562, 1622, 1618, 1573, 1616, 1601, 1615, 1555, 1579, 1545, 1579, 1567, 1559, 1623, 1541, 1622, 1588, 1594, 1601, 1623, 1616, 1629, 1603, 1592, 1569, 1649, 1644, 1618, 1632, 1575, 1615, 1567, 1602, 1603, 1541, 1616, 1563, 1584, 1572, 1560, 1580, 1580, 1594, 1572, 1559, 1583, 1568, 1578, 1573, 1565, 1637, 1569, 1603, 1556, 1604, 1584, 1611, 1570, 1581, 1580, 1561, 1592, 1604, 1552, 1584, 1557, 1640, 1557, 1626, 1525, 1596, 1546, 1555, 1590, 1562, 1593, 1592, 1625, 1551, 1614, 1609, 1641, 1608, 1633, 1579, 1585, 1646, 1619, 1641, 1565, 1621, 1597, 1628, 1629, 1632, 1541, 1630, 1631, 1650, 1575, 1591, 1597, 1637, 1594, 1611, 1602, 1661, 1585, 1662, 1565, 1594, 1567, 1616, 1558, 1603, 1561, 1614, 1561, 1601, 1564, 1584, 1615, 1581, 1612, 1592, 1608, 1641, 1613, 1619, 1672, 1576, 1589, 1599, 1595, 1622, 1630, 1587, 1606, 1597, 1633, 1616, 1657, 1623, 1625, 1664, 1619, 1640, 1594, 1626, 1672, 1629, 1599, 1621, 1611, 1640, 1602, 1623, 1645, 1650, 1609, 1660, 1607, 1583, 1604, 1612, 1607, 1603, 1600, 1588, 1612, 1616, 1615, 1599, 1625, 1638, 1590, 1598, 1590, 1630, 1617, 1612, 1604, 1626, 1706, 1675, 1714, 1687, 1662, 1642, 1630, 1605, 1603, 1609, 1612, 1594, 1616, 1639, 1651, 1625, 1596, 1595, 1629, 1638, 1637, 1612, 1588, 1642, 1617, 1631, 1655, 1639, 1617, 1641],
      "WindowCenter": [342.0, 341.0, 341.0, 340.0, 340.0, 340.0, 340.0, 340.0, 340.0, 339.0, 339.0, 339.0, 339.0, 340.0, 341.0, 341.0, 340.0, 341.0, 341.0, 341.0, 341.0, 340.0, 340.0, 340.0, 340.0, 340.0, 341.0, 341.0, 340.0, 340.0, 340.0, 340.0, 340.0, 340.0, 340.0, 340.0, 340.0, 340.0, 340.0, 340.0, 340.0, 340.0, 340.0, 340.0, 340.0, 340.0, 340.0, 340.0, 341.0, 341.0, 341.0, 341.0, 341.0, 341.0, 341.0, 340.0, 340.0, 340.0, 340.0, 340.0, 340.0, 340.0, 342.0, 341.0, 341.0, 341.0, 341.0, 342.0, 342.0, 342.0, 342.0, 341.0, 341.0, 341.0, 341.0, 342.0, 342.0, 341.0, 341.0, 341.0, 341.0, 341.0, 341.0, 341.0, 341.0, 341.0, 341.0, 341.0, 341.0, 340.0, 341.0, 341.0, 341.0, 341.0, 341.0, 341.0, 341.0, 341.0, 341.0, 340.0, 340.0, 340.0, 340.0, 341.0, 341.0, 341.0, 341.0, 341.0, 341.0, 341.0, 341.0, 340.0, 341.0, 341.0, 341.0, 341.0, 340.0, 339.0, 340.0, 341.0, 341.0, 341.0, 341.0, 341.0, 342.0, 342.0, 342.0, 342.0, 342.0, 342.0, 341.0, 341.0, 341.0, 341.0, 341.0, 341.0, 341.0, 341.0, 341.0, 341.0, 341.0, 339.0, 340.0, 340.0, 340.0, 340.0, 340.0, 341.0, 342.0, 342.0, 342.0, 342.0, 341.0, 342.0, 342.0, 342.0, 342.0, 342.0, 342.0, 342.0, 342.0, 342.0, 341.0, 341.0, 341.0, 341.0, 342.0, 342.0, 342.0, 341.0, 341.0, 341.0, 340.0, 341.0, 341.0, 341.0, 341.0, 342.0, 342.0, 342.0, 342.0, 341.0, 341.0, 340.0, 341.0, 341.0, 342.0, 342.0, 342.0, 342.0, 342.0, 342.0, 342.0, 341.0, 341.0, 341.0, 341.0, 341.0, 341.0, 340.0, 340.0, 339.0, 339.0, 340.0, 340.0, 341.0, 340.0, 340.0, 340.0, 340.0, 340.0, 341.0, 341.0, 342.0, 343.0, 341.0, 340.0, 340.0, 340.0, 340.0, 340.0, 340.0, 340.0, 340.0, 340.0, 341.0, 341.0, 341.0, 341.0, 341.0, 341.0, 341.0, 341.0, 341.0, 341.0, 341.0, 341.0, 341.0, 341.0, 341.0, 341.0, 341.0, 341.0, 342.0, 342.0, 342.0, 342.0, 341.0, 341.0, 341.0, 341.0, 341.0, 341.0, 342.0, 342.0, 343.0, 343.0, 342.0, 342.0, 341.0, 341.0, 341.0, 341.0, 341.0, 341.0, 341.0, 341.0, 341.0, 341.0, 341.0, 340.0, 341.0, 340.0, 340.0, 340.0, 342.0, 341.0, 342.0, 342.0, 342.0, 342.0, 341.0, 341.0, 341.0, 341.0, 341.0, 341.0, 341.0, 342.0, 341.0, 341.0, 342.0, 341.0, 341.0, 341.0, 341.0, 341.0, 342.0, 343.0, 342.0, 342.0, 341.0, 341.0, 341.0, 341.0, 341.0, 341.0, 341.0, 340.0, 340.0, 340.0, 340.0, 340.0, 340.0, 340.0, 341.0, 341.0, 341.0, 341.0, 342.0, 341.0, 341.0, 341.0, 341.0, 341.0, 341.0, 341.0, 341.0, 341.0, 341.0],
