{
  "AcquisitionMatrixPE": 104,
  "AcquisitionNumber": 1,
  "AcquisitionTime": "13:56:9.905000",
  "BandwidthPerPixelPhaseEncode": 43.054,
  "BaseResolution": 104,
  "CoilString": "C:E1_2",
  "ConversionSoftware": "dcm2niix",
  "ConversionSoftwareVersion": "v1.0.20191031",
  "DerivedVendorReportedEchoSpacing": 0.000669999,
  "DeviceSerialNumber": "18932",
  "DwellTime": 2.8e-06,
  "EchoTime": 0.02,
  "EffectiveEchoSpacing": 0.000223333,
  "FlipAngle": 30,
  "ImageComments": "Unaliased_MB2_PE2",
  "ImageOrientationPatientDICOM": [1, 0, 0, 0, 0.975535, -0.219846],
  "ImageType": [
    "ORIGINAL",
    "PRIMARY",
    "M",
    "MB",
    "ND",
    "MOSAIC"
],
  "ImagingFrequency": 297.228,
  "InPlanePhaseEncodingDirectionDICOM": "COL",
  "InstitutionAddress": "Richmond_Street_North_1151_London_409EF2_Ontario_CA_N6A_5B7",
  "InstitutionName": "Robarts_Reserch_Institute",
  "InstitutionalDepartmentName": "Department",
  "MRAcquisitionType": "2D",
  "MagneticFieldStrength": 6.98,
  "Manufacturer": "Siemens",
  "ManufacturersModelName": "Investigational_Device_7T",
  "Modality": "MR",
  "MultibandAccelerationFactor": 2,
  "ParallelReductionFactorInPlane": 3,
  "PartialFourier": 0.875,
  "PatientPosition": "HFS",
  "PercentPhaseFOV": 100,
  "PhaseEncodingDirection": "j-",
  "PhaseEncodingSteps": 91,
  "PhaseResolution": 1,
  "PixelBandwidth": 1717,
  "ProcedureStepDescription": "Diedrichsen_SeqRep4",
  "ProtocolName": "mbep2d_bold_mb2_p3_AP_2iso",
  "PulseSequenceDetails": "%CustomerSeq%_cmrr_mbep2d_bold",
  "ReceiveCoilName": "CFMM_8Tx32Rx",
  "ReconMatrixPE": 104,
  "RefLinesPE": 36,
  "RepetitionTime": 1,
  "ScanOptions": "PFP_FS",
  "ScanningSequence": "EP",
  "SequenceName": "epfid2d1_104",
  "SequenceVariant": "SK_SS",
  "SeriesDescription": "mbep2d_bold_mb2_p3_AP_2iso",
  "SeriesNumber": 32,
  "ShimSetting": [-74, 2049, 366, 308, 96, -127, -259, -116],
  "SliceThickness": 2,
  "SliceTiming": [0, 0.2275, 0.4575, 0.685, 0.9125, 0.1375, 0.365, 0.5925, 0.8225, 0.045, 0.275, 0.5025, 0.73, 0.9575, 0.1825, 0.41, 0.64, 0.8675, 0.0925, 0.32, 0.5475, 0.775, 0, 0.2275, 0.4575, 0.685, 0.9125, 0.1375, 0.365, 0.5925, 0.8225, 0.045, 0.275, 0.5025, 0.73, 0.9575, 0.1825, 0.41, 0.64, 0.8675, 0.0925, 0.32, 0.5475, 0.775],
  "SoftwareVersions": "syngo_MR_B17",
  "SpacingBetweenSlices": 2,
  "StationName": "MASTER",
  "TaskName": "dsp",
  "TotalReadoutTime": 0.0230033,
  "TxRefAmp": 120,
  "dcmmeta_affine": [
    [-2.0, 0.0, 0.0, 105.4527816772461],
    [0.0, 1.9510691165924072, -0.4396924078464508, -102.40196990966797],
    [0.0, 0.4396924078464508, 1.9510691165924072, -65.14813232421875],
    [0.0, 0.0, 0.0, 1.0]
],
  "dcmmeta_reorient_transform": [
    [0.0, -1.0, 0.0, 103.0],
    [1.0, 0.0, 0.0, 0.0],
    [0.0, 0.0, 1.0, 0.0],
    [0.0, 0.0, 0.0, 1.0]
],
  "dcmmeta_shape": [104, 104, 44, 330],
  "dcmmeta_slice_dim": 2,
  "dcmmeta_version": 0.6,
  "global": {
    "const": {
      "AcquisitionMatrix": [104, 0, 0, 104],
      "AngioFlag": "N",
      "BitsAllocated": 16,
      "BitsStored": 12,
      "Columns": 728,
      "EchoNumbers": 1,
      "EchoTime": 20.0,
      "EchoTrainLength": 1,
      "FlipAngle": 30.0,
      "HighBit": 11,
      "ImageOrientationPatient": [1.0, 0.0, 0.0, 0.0, 0.97553454431481, -0.2198462027157],
      "ImagePositionPatient": [-729.45278453827, -707.29169876777, 117.32421584434],
      "ImageType": [
        "ORIGINAL",
        "PRIMARY",
        "M",
        "MB",
        "ND",
        "MOSAIC"
],
      "ImagedNucleus": "1H",
      "ImagingFrequency": 297.228117,
      "InPlanePhaseEncodingDirection": "COL",
      "MRAcquisitionType": "2D",
      "MagneticFieldStrength": 6.98,
      "Manufacturer": "SIEMENS",
      "ManufacturerModelName": "Investigational_Device_7T",
      "Modality": "MR",
      "NumberOfAverages": 1.0,
      "NumberOfPhaseEncodingSteps": 91,
      "PercentPhaseFieldOfView": 100.0,
      "PercentSampling": 100.0,
      "PerformedProcedureStepStartTime": "124150.406000",
      "PhotometricInterpretation": "MONOCHROME2",
      "PixelBandwidth": 1717.0,
      "PixelRepresentation": 0,
      "PixelSpacing": [2.0, 2.0],
      "ProtocolName": "mbep2d_bold_mb2_p3_AP 2iso",
      "RepetitionTime": 1000.0,
      "Rows": 728,
      "SAR": 0.0,
      "SamplesPerPixel": 1,
      "ScanOptions": [
        "PFP",
        "FS"
],
      "ScanningSequence": "EP",
      "SequenceName": "epfid2d1_104",
      "SequenceVariant": [
        "SK",
        "SS"
],
      "SeriesDescription": "mbep2d_bold_mb2_p3_AP 2iso",
      "SeriesNumber": 32,
      "SeriesTime": "135644.187000",
      "SliceLocation": -41.041568745608,
      "SliceThickness": 2.0,
      "SmallestImagePixelValue": 0,
      "SoftwareVersions": "syngo MR B17",
      "SpacingBetweenSlices": 1.9999999733392,
      "SpecificCharacterSet": "ISO_IR 100",
      "StudyID": "1",
      "StudyTime": "124150.343000",
      "TransmitCoilName": "CFMM_8Tx32Rx",
      "VariableFlipAngleFlag": "N",
      "WindowCenterWidthExplanation": "Algo1",
      "dBdt": 0.0},
    "slices": {}
  },
  "time": {
    "samples": {
      "AcquisitionNumber": [1, 2, 3, 4, 5, 6, 7, 8, 9, 10, 11, 12, 13, 14, 15, 16, 17, 18, 19, 20, 21, 22, 23, 24, 25, 26, 27, 28, 29, 30, 31, 32, 33, 34, 35, 36, 37, 38, 39, 40, 41, 42, 43, 44, 45, 46, 47, 48, 49, 50, 51, 52, 53, 54, 55, 56, 57, 58, 59, 60, 61, 62, 63, 64, 65, 66, 67, 68, 69, 70, 71, 72, 73, 74, 75, 76, 77, 78, 79, 80, 81, 82, 83, 84, 85, 86, 87, 88, 89, 90, 91, 92, 93, 94, 95, 96, 97, 98, 99, 100, 101, 102, 103, 104, 105, 106, 107, 108, 109, 110, 111, 112, 113, 114, 115, 116, 117, 118, 119, 120, 121, 122, 123, 124, 125, 126, 127, 128, 129, 130, 131, 132, 133, 134, 135, 136, 137, 138, 139, 140, 141, 142, 143, 144, 145, 146, 147, 148, 149, 150, 151, 152, 153, 154, 155, 156, 157, 158, 159, 160, 161, 162, 163, 164, 165, 166, 167, 168, 169, 170, 171, 172, 173, 174, 175, 176, 177, 178, 179, 180, 181, 182, 183, 184, 185, 186, 187, 188, 189, 190, 191, 192, 193, 194, 195, 196, 197, 198, 199, 200, 201, 202, 203, 204, 205, 206, 207, 208, 209, 210, 211, 212, 213, 214, 215, 216, 217, 218, 219, 220, 221, 222, 223, 224, 225, 226, 227, 228, 229, 230, 231, 232, 233, 234, 235, 236, 237, 238, 239, 240, 241, 242, 243, 244, 245, 246, 247, 248, 249, 250, 251, 252, 253, 254, 255, 256, 257, 258, 259, 260, 261, 262, 263, 264, 265, 266, 267, 268, 269, 270, 271, 272, 273, 274, 275, 276, 277, 278, 279, 280, 281, 282, 283, 284, 285, 286, 287, 288, 289, 290, 291, 292, 293, 294, 295, 296, 297, 298, 299, 300, 301, 302, 303, 304, 305, 306, 307, 308, 309, 310, 311, 312, 313, 314, 315, 316, 317, 318, 319, 320, 321, 322, 323, 324, 325, 326, 327, 328, 329, 330],
      "AcquisitionTime": ["135609.905000", "135610.910000", "135611.912500", "135612.917500", "135613.922500", "135614.925000", "135615.930000", "135616.932500", "135617.937500", "135618.942500", "135619.945000", "135620.950000", "135621.952500", "135622.957500", "135623.962500", "135624.965000", "135625.970000", "135626.972500", "135627.977500", "135628.982500", "135629.985000", "135630.990000", "135631.995000", "135632.997500", "135634.002500", "135635.005000", "135636.010000", "135637.015000", "135638.017500", "135639.022500", "135640.025000", "135641.030000", "135642.035000", "135643.037500", "135644.042500", "135645.045000", "135646.050000", "135647.055000", "135648.057500", "135649.062500", "135650.065000", "135651.070000", "135652.075000", "135653.077500", "135654.082500", "135655.085000", "135656.090000", "135657.095000", "135658.097500", "135659.102500", "135700.105000", "135701.110000", "135702.115000", "135703.117500", "135704.122500", "135705.127500", "135706.130000", "135707.135000", "135708.137500", "135709.142500", "135710.147500", "135711.150000", "135712.155000", "135713.157500", "135714.162500", "135715.167500", "135716.170000", "135717.175000", "135718.177500", "135719.182500", "135720.187500", "135721.190000", "135722.195000", "135723.197500", "135724.202500", "135725.207500", "135726.210000", "135727.215000", "135728.217500", "135729.222500", "135730.227500", "135731.230000", "135732.235000", "135733.240000", "135734.242500", "135735.247500", "135736.250000", "135737.255000", "135738.260000", "135739.262500", "135740.267500", "135741.270000", "135742.275000", "135743.280000", "135744.282500", "135745.287500", "135746.290000", "135747.295000", "135748.300000", "135749.302500", "135750.307500", "135751.310000", "135752.315000", "135753.320000", "135754.322500", "135755.327500", "135756.330000", "135757.335000", "135758.340000", "135759.342500", "135800.347500", "135801.350000", "135802.355000", "135803.360000", "135804.362500", "135805.367500", "135806.372500", "135807.375000", "135808.380000", "135809.382500", "135810.387500", "135811.392500", "135812.395000", "135813.400000", "135814.402500", "135815.407500", "135816.412500", "135817.415000", "135818.420000", "135819.422500", "135820.427500", "135821.432500", "135822.435000", "135823.440000", "135824.442500", "135825.447500", "135826.452500", "135827.455000", "135828.460000", "135829.462500", "135830.467500", "135831.472500", "135832.475000", "135833.480000", "135834.482500", "135835.487500", "135836.492500", "135837.495000", "135838.500000", "135839.505000", "135840.507500", "135841.512500", "135842.515000", "135843.520000", "135844.525000", "135845.527500", "135846.532500", "135847.535000", "135848.540000", "135849.545000", "135850.547500", "135851.552500", "135852.555000", "135853.560000", "135854.565000", "135855.567500", "135856.572500", "135857.575000", "135858.580000", "135859.585000", "135900.587500", "135901.592500", "135902.595000", "135903.600000", "135904.605000", "135905.607500", "135906.612500", "135907.617500", "135908.620000", "135909.625000", "135910.627500", "135911.632500", "135912.637500", "135913.640000", "135914.645000", "135915.647500", "135916.652500", "135917.657500", "135918.660000", "135919.665000", "135920.667500", "135921.672500", "135922.677500", "135923.680000", "135924.685000", "135925.687500", "135926.692500", "135927.697500", "135928.700000", "135929.705000", "135930.707500", "135931.712500", "135932.717500", "135933.720000", "135934.725000", "135935.727500", "135936.732500", "135937.737500", "135938.740000", "135939.745000", "135940.750000", "135941.752500", "135942.757500", "135943.760000", "135944.765000", "135945.770000", "135946.772500", "135947.777500", "135948.780000", "135949.785000", "135950.790000", "135951.792500", "135952.797500", "135953.800000", "135954.805000", "135955.810000", "135956.812500", "135957.817500", "135958.820000", "135959.825000", "140000.830000", "140001.832500", "140002.837500", "140003.840000", "140004.845000", "140005.850000", "140006.852500", "140007.857500", "140008.862500", "140009.865000", "140010.870000", "140011.872500", "140012.877500", "140013.882500", "140014.885000", "140015.890000", "140016.892500", "140017.897500", "140018.902500", "140019.905000", "140020.910000", "140021.912500", "140022.917500", "140023.922500", "140024.925000", "140025.930000", "140026.932500", "140027.937500", "140028.942500", "140029.945000", "140030.950000", "140031.952500", "140032.957500", "140033.962500", "140034.965000", "140035.970000", "140036.972500", "140037.977500", "140038.982500", "140039.985000", "140040.990000", "140041.995000", "140042.997500", "140044.002500", "140045.005000", "140046.010000", "140047.015000", "140048.017500", "140049.022500", "140050.025000", "140051.030000", "140052.035000", "140053.037500", "140054.042500", "140055.045000", "140056.050000", "140057.055000", "140058.057500", "140059.062500", "140100.065000", "140101.070000", "140102.075000", "140103.077500", "140104.082500", "140105.085000", "140106.090000", "140107.095000", "140108.097500", "140109.102500", "140110.105000", "140111.110000", "140112.115000", "140113.117500", "140114.122500", "140115.127500", "140116.130000", "140117.135000", "140118.137500", "140119.142500", "140120.147500", "140121.150000", "140122.155000", "140123.157500", "140124.162500", "140125.167500", "140126.170000", "140127.175000", "140128.177500", "140129.182500", "140130.187500", "140131.190000", "140132.195000", "140133.197500", "140134.202500", "140135.207500", "140136.210000", "140137.215000", "140138.217500", "140139.222500", "140140.227500"],
      "ContentTime": ["135644.187000", "135644.187000", "135644.187000", "135644.203000", "135644.203000", "135644.203000", "135644.203000", "135644.203000", "135644.203000", "135644.218000", "135644.218000", "135644.218000", "135644.218000", "135644.218000", "135644.218000", "135644.218000", "135644.234000", "135644.234000", "135644.234000", "135644.234000", "135644.250000", "135644.250000", "135644.250000", "135644.250000", "135644.250000", "135644.250000", "135644.250000", "135644.265000", "135644.265000", "135644.265000", "135644.265000", "135644.265000", "135644.265000", "135704.140000", "135704.140000", "135704.140000", "135704.140000", "135704.140000", "135704.140000", "135704.156000", "135704.156000", "135704.156000", "135704.156000", "135704.156000", "135704.156000", "135704.156000", "135704.171000", "135704.171000", "135704.171000", "135704.187000", "135704.187000", "135704.187000", "135704.187000", "135724.140000", "135724.140000", "135724.140000", "135724.140000", "135724.140000", "135724.140000", "135724.156000", "135724.156000", "135724.156000", "135724.156000", "135724.156000", "135724.156000", "135724.156000", "135724.171000", "135724.171000", "135724.171000", "135724.171000", "135724.171000", "135724.171000", "135724.171000", "135744.140000", "135744.140000", "135744.140000", "135744.140000", "135744.156000", "135744.156000", "135744.156000", "135744.156000", "135744.156000", "135744.156000", "135744.171000", "135744.171000", "135744.171000", "135744.171000", "135744.171000", "135744.171000", "135744.187000", "135744.187000", "135744.187000", "135744.187000", "135804.140000", "135804.140000", "135804.140000", "135804.140000", "135804.156000", "135804.156000", "135804.156000", "135804.156000", "135804.156000", "135804.156000", "135804.156000", "135804.171000", "135804.171000", "135804.171000", "135804.171000", "135804.171000", "135804.187000", "135804.187000", "135804.187000", "135804.187000", "135824.140000", "135824.140000", "135824.140000", "135824.140000", "135824.140000", "135824.156000", "135824.156000", "135824.156000", "135824.156000", "135824.156000", "135824.156000", "135824.156000", "135824.156000", "135824.171000", "135824.171000", "135824.171000", "135824.171000", "135824.171000", "135824.171000", "135824.171000", "135844.140000", "135844.140000", "135844.140000", "135844.140000", "135844.156000", "135844.156000", "135844.156000", "135844.171000", "135844.171000", "135844.171000", "135844.171000", "135844.171000", "135844.171000", "135844.171000", "135844.187000", "135844.187000", "135844.187000", "135844.187000", "135844.187000", "135844.187000", "135904.140000", "135904.140000", "135904.140000", "135904.140000", "135904.140000", "135904.140000", "135904.156000", "135904.156000", "135904.156000", "135904.156000", "135904.156000", "135904.156000", "135904.156000", "135904.171000", "135904.171000", "135904.171000", "135904.171000", "135904.171000", "135904.171000", "135904.171000", "135924.140000", "135924.140000", "135924.140000", "135924.140000", "135924.156000", "135924.156000", "135924.156000", "135924.156000", "135924.156000", "135924.156000", "135924.156000", "135924.171000", "135924.171000", "135924.171000", "135924.171000", "135924.171000", "135924.171000", "135924.171000", "135924.187000", "135924.187000", "135944.140000", "135944.140000", "135944.140000", "135944.140000", "135944.140000", "135944.140000", "135944.156000", "135944.156000", "135944.156000", "135944.156000", "135944.156000", "135944.156000", "135944.156000", "135944.171000", "135944.171000", "135944.171000", "135944.171000", "135944.171000", "135944.171000", "135944.171000", "140004.140000", "140004.140000", "140004.140000", "140004.140000", "140004.140000", "140004.140000", "140004.156000", "140004.156000", "140004.156000", "140004.156000", "140004.156000", "140004.171000", "140004.171000", "140004.171000", "140004.171000", "140004.171000", "140004.171000", "140004.171000", "140004.171000", "140004.187000", "140024.140000", "140024.140000", "140024.140000", "140024.140000", "140024.140000", "140024.140000", "140024.156000", "140024.156000", "140024.156000", "140024.156000", "140024.156000", "140024.156000", "140024.156000", "140024.156000", "140024.171000", "140024.171000", "140024.171000", "140024.171000", "140024.171000", "140024.187000", "140044.140000", "140044.140000", "140044.140000", "140044.140000", "140044.140000", "140044.140000", "140044.156000", "140044.156000", "140044.156000", "140044.156000", "140044.156000", "140044.156000", "140044.156000", "140044.171000", "140044.171000", "140044.171000", "140044.171000", "140044.171000", "140044.171000", "140044.171000", "140104.140000", "140104.140000", "140104.140000", "140104.140000", "140104.140000", "140104.140000", "140104.156000", "140104.156000", "140104.156000", "140104.171000", "140104.171000", "140104.171000", "140104.171000", "140104.171000", "140104.171000", "140104.187000", "140104.187000", "140104.187000", "140104.187000", "140104.187000", "140124.140000", "140124.140000", "140124.140000", "140124.140000", "140124.140000", "140124.140000", "140124.156000", "140124.156000", "140124.156000", "140124.171000", "140124.171000", "140124.171000", "140124.171000", "140124.171000", "140124.171000", "140124.171000", "140124.187000", "140124.187000", "140124.187000", "140124.187000", "140146.093000", "140146.093000", "140146.093000", "140146.093000", "140146.093000", "140146.109000", "140146.109000", "140146.109000", "140146.109000", "140146.109000", "140146.109000", "140146.109000", "140146.125000", "140146.125000", "140146.125000", "140146.125000", "140146.125000"],
      "InstanceCreationTime": ["135644.187000", "135644.187000", "135644.187000", "135644.203000", "135644.203000", "135644.203000", "135644.203000", "135644.203000", "135644.203000", "135644.218000", "135644.218000", "135644.218000", "135644.218000", "135644.218000", "135644.218000", "135644.218000", "135644.234000", "135644.234000", "135644.234000", "135644.234000", "135644.250000", "135644.250000", "135644.250000", "135644.250000", "135644.250000", "135644.250000", "135644.250000", "135644.265000", "135644.265000", "135644.265000", "135644.265000", "135644.265000", "135644.265000", "135704.140000", "135704.140000", "135704.140000", "135704.140000", "135704.140000", "135704.140000", "135704.156000", "135704.156000", "135704.156000", "135704.156000", "135704.156000", "135704.156000", "135704.156000", "135704.171000", "135704.171000", "135704.171000", "135704.187000", "135704.187000", "135704.187000", "135704.187000", "135724.140000", "135724.140000", "135724.140000", "135724.140000", "135724.140000", "135724.140000", "135724.156000", "135724.156000", "135724.156000", "135724.156000", "135724.156000", "135724.156000", "135724.156000", "135724.171000", "135724.171000", "135724.171000", "135724.171000", "135724.171000", "135724.171000", "135724.171000", "135744.140000", "135744.140000", "135744.140000", "135744.140000", "135744.156000", "135744.156000", "135744.156000", "135744.156000", "135744.156000", "135744.156000", "135744.171000", "135744.171000", "135744.171000", "135744.171000", "135744.171000", "135744.171000", "135744.187000", "135744.187000", "135744.187000", "135744.187000", "135804.140000", "135804.140000", "135804.140000", "135804.140000", "135804.156000", "135804.156000", "135804.156000", "135804.156000", "135804.156000", "135804.156000", "135804.156000", "135804.171000", "135804.171000", "135804.171000", "135804.171000", "135804.171000", "135804.187000", "135804.187000", "135804.187000", "135804.187000", "135824.140000", "135824.140000", "135824.140000", "135824.140000", "135824.140000", "135824.156000", "135824.156000", "135824.156000", "135824.156000", "135824.156000", "135824.156000", "135824.156000", "135824.156000", "135824.171000", "135824.171000", "135824.171000", "135824.171000", "135824.171000", "135824.171000", "135824.171000", "135844.140000", "135844.140000", "135844.140000", "135844.140000", "135844.156000", "135844.156000", "135844.156000", "135844.171000", "135844.171000", "135844.171000", "135844.171000", "135844.171000", "135844.171000", "135844.171000", "135844.187000", "135844.187000", "135844.187000", "135844.187000", "135844.187000", "135844.187000", "135904.140000", "135904.140000", "135904.140000", "135904.140000", "135904.140000", "135904.140000", "135904.156000", "135904.156000", "135904.156000", "135904.156000", "135904.156000", "135904.156000", "135904.156000", "135904.171000", "135904.171000", "135904.171000", "135904.171000", "135904.171000", "135904.171000", "135904.171000", "135924.140000", "135924.140000", "135924.140000", "135924.140000", "135924.156000", "135924.156000", "135924.156000", "135924.156000", "135924.156000", "135924.156000", "135924.156000", "135924.171000", "135924.171000", "135924.171000", "135924.171000", "135924.171000", "135924.171000", "135924.171000", "135924.187000", "135924.187000", "135944.140000", "135944.140000", "135944.140000", "135944.140000", "135944.140000", "135944.140000", "135944.156000", "135944.156000", "135944.156000", "135944.156000", "135944.156000", "135944.156000", "135944.156000", "135944.171000", "135944.171000", "135944.171000", "135944.171000", "135944.171000", "135944.171000", "135944.171000", "140004.140000", "140004.140000", "140004.140000", "140004.140000", "140004.140000", "140004.140000", "140004.156000", "140004.156000", "140004.156000", "140004.156000", "140004.156000", "140004.171000", "140004.171000", "140004.171000", "140004.171000", "140004.171000", "140004.171000", "140004.171000", "140004.171000", "140004.187000", "140024.140000", "140024.140000", "140024.140000", "140024.140000", "140024.140000", "140024.140000", "140024.156000", "140024.156000", "140024.156000", "140024.156000", "140024.156000", "140024.156000", "140024.156000", "140024.156000", "140024.171000", "140024.171000", "140024.171000", "140024.171000", "140024.171000", "140024.187000", "140044.140000", "140044.140000", "140044.140000", "140044.140000", "140044.140000", "140044.140000", "140044.156000", "140044.156000", "140044.156000", "140044.156000", "140044.156000", "140044.156000", "140044.156000", "140044.171000", "140044.171000", "140044.171000", "140044.171000", "140044.171000", "140044.171000", "140044.171000", "140104.140000", "140104.140000", "140104.140000", "140104.140000", "140104.140000", "140104.140000", "140104.156000", "140104.156000", "140104.156000", "140104.171000", "140104.171000", "140104.171000", "140104.171000", "140104.171000", "140104.171000", "140104.187000", "140104.187000", "140104.187000", "140104.187000", "140104.187000", "140124.140000", "140124.140000", "140124.140000", "140124.140000", "140124.140000", "140124.140000", "140124.156000", "140124.156000", "140124.156000", "140124.171000", "140124.171000", "140124.171000", "140124.171000", "140124.171000", "140124.171000", "140124.171000", "140124.187000", "140124.187000", "140124.187000", "140124.187000", "140146.093000", "140146.093000", "140146.093000", "140146.093000", "140146.093000", "140146.109000", "140146.109000", "140146.109000", "140146.109000", "140146.109000", "140146.109000", "140146.109000", "140146.125000", "140146.125000", "140146.125000", "140146.125000", "140146.125000"],
      "InstanceNumber": [1, 2, 3, 4, 5, 6, 7, 8, 9, 10, 11, 12, 13, 14, 15, 16, 17, 18, 19, 20, 21, 22, 23, 24, 25, 26, 27, 28, 29, 30, 31, 32, 33, 34, 35, 36, 37, 38, 39, 40, 41, 42, 43, 44, 45, 46, 47, 48, 49, 50, 51, 52, 53, 54, 55, 56, 57, 58, 59, 60, 61, 62, 63, 64, 65, 66, 67, 68, 69, 70, 71, 72, 73, 74, 75, 76, 77, 78, 79, 80, 81, 82, 83, 84, 85, 86, 87, 88, 89, 90, 91, 92, 93, 94, 95, 96, 97, 98, 99, 100, 101, 102, 103, 104, 105, 106, 107, 108, 109, 110, 111, 112, 113, 114, 115, 116, 117, 118, 119, 120, 121, 122, 123, 124, 125, 126, 127, 128, 129, 130, 131, 132, 133, 134, 135, 136, 137, 138, 139, 140, 141, 142, 143, 144, 145, 146, 147, 148, 149, 150, 151, 152, 153, 154, 155, 156, 157, 158, 159, 160, 161, 162, 163, 164, 165, 166, 167, 168, 169, 170, 171, 172, 173, 174, 175, 176, 177, 178, 179, 180, 181, 182, 183, 184, 185, 186, 187, 188, 189, 190, 191, 192, 193, 194, 195, 196, 197, 198, 199, 200, 201, 202, 203, 204, 205, 206, 207, 208, 209, 210, 211, 212, 213, 214, 215, 216, 217, 218, 219, 220, 221, 222, 223, 224, 225, 226, 227, 228, 229, 230, 231, 232, 233, 234, 235, 236, 237, 238, 239, 240, 241, 242, 243, 244, 245, 246, 247, 248, 249, 250, 251, 252, 253, 254, 255, 256, 257, 258, 259, 260, 261, 262, 263, 264, 265, 266, 267, 268, 269, 270, 271, 272, 273, 274, 275, 276, 277, 278, 279, 280, 281, 282, 283, 284, 285, 286, 287, 288, 289, 290, 291, 292, 293, 294, 295, 296, 297, 298, 299, 300, 301, 302, 303, 304, 305, 306, 307, 308, 309, 310, 311, 312, 313, 314, 315, 316, 317, 318, 319, 320, 321, 322, 323, 324, 325, 326, 327, 328, 329, 330],
      "LargestImagePixelValue": [1567, 1599, 1565, 1598, 1565, 1613, 1539, 1587, 1592, 1547, 1619, 1502, 1574, 1565, 1527, 1585, 1557, 1534, 1577, 1588, 1593, 1530, 1556, 1531, 1532, 1526, 1566, 1514, 1534, 1556, 1577, 1571, 1554, 1582, 1562, 1565, 1578, 1526, 1602, 1561, 1590, 1553, 1590, 1557, 1566, 1586, 1584, 1558, 1536, 1594, 1569, 1543, 1549, 1504, 1575, 1576, 1529, 1546, 1531, 1571, 1531, 1565, 1541, 1563, 1592, 1525, 1598, 1545, 1589, 1575, 1560, 1527, 1545, 1563, 1527, 1562, 1532, 1495, 1541, 1535, 1586, 1529, 1525, 1528, 1514, 1585, 1538, 1524, 1530, 1575, 1560, 1540, 1557, 1582, 1562, 1557, 1527, 1558, 1535, 1555, 1541, 1531, 1543, 1554, 1549, 1570, 1556, 1542, 1544, 1516, 1579, 1561, 1553, 1522, 1563, 1545, 1518, 1588, 1519, 1563, 1540, 1552, 1572, 1530, 1544, 1586, 1568, 1524, 1583, 1532, 1583, 1536, 1550, 1586, 1522, 1604, 1526, 1553, 1548, 1580, 1519, 1577, 1571, 1513, 1570, 1560, 1529, 1534, 1518, 1579, 1562, 1542, 1503, 1541, 1519, 1497, 1542, 1542, 1564, 1561, 1564, 1594, 1547, 1574, 1585, 1625, 1550, 1525, 1582, 1570, 1585, 1568, 1590, 1559, 1633, 1578, 1602, 1569, 1574, 1614, 1568, 1578, 1614, 1563, 1592, 1568, 1571, 1572, 1572, 1536, 1629, 1579, 1572, 1579, 1604, 1580, 1553, 1517, 1585, 1578, 1577, 1578, 1578, 1541, 1613, 1552, 1606, 1529, 1591, 1569, 1562, 1551, 1601, 1592, 1538, 1548, 1560, 1534, 1583, 1626, 1611, 1606, 1566, 1616, 1552, 1611, 1590, 1572, 1565, 1592, 1588, 1578, 1546, 1613, 1588, 1589, 1575, 1555, 1594, 1569, 1610, 1577, 1576, 1571, 1589, 1611, 1585, 1581, 1629, 1626, 1625, 1571, 1557, 1608, 1574, 1635, 1543, 1599, 1577, 1624, 1542, 1568, 1592, 1564, 1624, 1557, 1555, 1592, 1596, 1589, 1561, 1634, 1613, 1614, 1592, 1639, 1588, 1637, 1644, 1627, 1613, 1584, 1604, 1627, 1569, 1609, 1595, 1571, 1579, 1587, 1599, 1562, 1576, 1567, 1590, 1584, 1603, 1590, 1590, 1650, 1552, 1627, 1540, 1617, 1625, 1597, 1585, 1590, 1631, 1650, 1623, 1659, 1570, 1652, 1593, 1664, 1591, 1635, 1569, 1574, 1565, 1626, 1543, 1624, 1573, 1587, 1565, 1608, 1615, 1603],
      "WindowCenter": [342.0, 341.0, 341.0, 340.0, 339.0, 339.0, 339.0, 341.0, 341.0, 340.0, 340.0, 339.0, 340.0, 340.0, 339.0, 340.0, 339.0, 339.0, 339.0, 339.0, 340.0, 341.0, 342.0, 342.0, 342.0, 341.0, 341.0, 340.0, 339.0, 339.0, 340.0, 340.0, 340.0, 340.0, 340.0, 341.0, 341.0, 339.0, 339.0, 339.0, 339.0, 339.0, 340.0, 340.0, 340.0, 340.0, 340.0, 340.0, 340.0, 340.0, 340.0, 340.0, 340.0, 340.0, 341.0, 341.0, 340.0, 339.0, 339.0, 340.0, 340.0, 340.0, 340.0, 340.0, 340.0, 339.0, 341.0, 341.0, 341.0, 341.0, 340.0, 340.0, 340.0, 340.0, 339.0, 340.0, 340.0, 340.0, 340.0, 341.0, 342.0, 341.0, 341.0, 341.0, 341.0, 342.0, 340.0, 340.0, 340.0, 341.0, 342.0, 341.0, 342.0, 341.0, 340.0, 341.0, 341.0, 341.0, 341.0, 342.0, 341.0, 341.0, 341.0, 340.0, 340.0, 341.0, 341.0, 341.0, 341.0, 340.0, 342.0, 342.0, 342.0, 341.0, 342.0, 342.0, 341.0, 342.0, 341.0, 340.0, 340.0, 340.0, 340.0, 340.0, 340.0, 340.0, 341.0, 340.0, 341.0, 340.0, 341.0, 341.0, 340.0, 340.0, 340.0, 341.0, 340.0, 341.0, 341.0, 341.0, 341.0, 343.0, 343.0, 343.0, 342.0, 341.0, 340.0, 340.0, 340.0, 341.0, 341.0, 342.0, 342.0, 342.0, 341.0, 341.0, 341.0, 342.0, 341.0, 340.0, 340.0, 340.0, 340.0, 340.0, 340.0, 341.0, 340.0, 340.0, 340.0, 340.0, 340.0, 339.0, 340.0, 339.0, 340.0, 340.0, 340.0, 340.0, 340.0, 341.0, 340.0, 340.0, 340.0, 340.0, 341.0, 340.0, 340.0, 341.0, 341.0, 340.0, 341.0, 341.0, 341.0, 342.0, 342.0, 341.0, 341.0, 341.0, 342.0, 341.0, 342.0, 342.0, 342.0, 342.0, 342.0, 342.0, 341.0, 340.0, 341.0, 341.0, 341.0, 341.0, 342.0, 342.0, 342.0, 342.0, 341.0, 340.0, 340.0, 341.0, 341.0, 341.0, 342.0, 342.0, 342.0, 342.0, 342.0, 341.0, 341.0, 341.0, 340.0, 340.0, 340.0, 341.0, 341.0, 342.0, 341.0, 341.0, 341.0, 341.0, 342.0, 342.0, 342.0, 342.0, 342.0, 342.0, 342.0, 341.0, 341.0, 341.0, 342.0, 342.0, 342.0, 342.0, 341.0, 341.0, 340.0, 341.0, 341.0, 342.0, 341.0, 342.0, 342.0, 341.0, 341.0, 340.0, 342.0, 342.0, 342.0, 341.0, 340.0, 340.0, 340.0, 340.0, 339.0, 339.0, 339.0, 339.0, 340.0, 340.0, 340.0, 340.0, 341.0, 341.0, 342.0, 342.0, 342.0, 342.0, 342.0, 342.0, 342.0, 342.0, 342.0, 342.0, 341.0, 341.0, 342.0, 342.0, 342.0, 341.0, 341.0, 341.0, 341.0, 341.0, 341.0, 340.0, 339.0, 340.0, 340.0, 340.0, 340.0, 340.0, 340.0, 340.0, 340.0, 341.0, 340.0, 341.0, 341.0, 341.0, 342.0, 342.0, 342.0, 342.0, 341.0, 341.0, 341.0, 340.0, 341.0, 341.0],
