{
  "AcquisitionMatrixPE": 104,
  "AcquisitionNumber": 1,
  "AcquisitionTime": "09:48:14.900000",
  "BandwidthPerPixelPhaseEncode": 43.054,
  "BaseResolution": 104,
  "CoilString": "C:E1_2",
  "ConversionSoftware": "dcm2niix",
  "ConversionSoftwareVersion": "v1.0.20191031",
  "DerivedVendorReportedEchoSpacing": 0.000669999,
  "DeviceSerialNumber": "18932",
  "DwellTime": 2.8e-06,
  "EchoTime": 0.02,
  "EffectiveEchoSpacing": 0.000223333,
  "FlipAngle": 30,
  "ImageComments": "Unaliased_MB2_PE2",
  "ImageOrientationPatientDICOM": [1, -1e-16, 0, 1e-16, 0.979925, -0.199368],
  "ImageType": [
    "ORIGINAL",
    "PRIMARY",
    "M",
    "MB",
    "ND",
    "MOSAIC"
],
  "ImagingFrequency": 297.229,
  "InPlanePhaseEncodingDirectionDICOM": "COL",
  "InstitutionAddress": "Richmond_Street_North_1151_London_409EF2_Ontario_CA_N6A_5B7",
  "InstitutionName": "Robarts_Reserch_Institute",
  "InstitutionalDepartmentName": "Department",
  "MRAcquisitionType": "2D",
  "MagneticFieldStrength": 6.98,
  "Manufacturer": "Siemens",
  "ManufacturersModelName": "Investigational_Device_7T",
  "Modality": "MR",
  "MultibandAccelerationFactor": 2,
  "ParallelReductionFactorInPlane": 3,
  "PartialFourier": 0.875,
  "PatientPosition": "HFS",
  "PercentPhaseFOV": 100,
  "PhaseEncodingDirection": "j-",
  "PhaseEncodingSteps": 91,
  "PhaseResolution": 1,
  "PixelBandwidth": 1717,
  "ProcedureStepDescription": "Diedrichsen_SeqRep4",
  "ProtocolName": "mbep2d_bold_mb2_p3_AP_2iso",
  "PulseSequenceDetails": "%CustomerSeq%_cmrr_mbep2d_bold",
  "ReceiveCoilName": "CFMM_8Tx32Rx",
  "ReconMatrixPE": 104,
  "RefLinesPE": 36,
  "RepetitionTime": 1,
  "ScanOptions": "PFP_FS",
  "ScanningSequence": "EP",
  "SequenceName": "epfid2d1_104",
  "SequenceVariant": "SK_SS",
  "SeriesDescription": "mbep2d_bold_mb2_p3_AP_2iso",
  "SeriesNumber": 26,
  "ShimSetting": [5, 2115, 64, 1356, 38, -3, 144, -167],
  "SliceThickness": 2,
  "SliceTiming": [0, 0.2275, 0.455, 0.6825, 0.91, 0.135, 0.365, 0.5925, 0.82, 0.045, 0.2725, 0.5, 0.73, 0.9575, 0.1825, 0.41, 0.6375, 0.865, 0.09, 0.3175, 0.5475, 0.775, 0, 0.2275, 0.455, 0.6825, 0.91, 0.135, 0.365, 0.5925, 0.82, 0.045, 0.2725, 0.5, 0.73, 0.9575, 0.1825, 0.41, 0.6375, 0.865, 0.09, 0.3175, 0.5475, 0.775],
  "SoftwareVersions": "syngo_MR_B17",
  "SpacingBetweenSlices": 2,
  "StationName": "MASTER",
  "TaskName": "dsp",
  "TotalReadoutTime": 0.0230033,
  "TxRefAmp": 120,
  "dcmmeta_affine": [
    [-2.0, 2.000000033724767e-16, -3.987358960979601e-17, 105.4527816772461],
    [2.000000033724767e-16, 1.9598493576049805, -0.3987358808517456, -107.36229705810547],
    [0.0, 0.3987358808517456, 1.9598493576049805, -42.90914535522461],
    [0.0, 0.0, 0.0, 1.0]
],
  "dcmmeta_reorient_transform": [
    [0.0, -1.0, 0.0, 103.0],
    [1.0, 0.0, 0.0, 0.0],
    [0.0, 0.0, 1.0, 0.0],
    [0.0, 0.0, 0.0, 1.0]
],
  "dcmmeta_shape": [104, 104, 44, 330],
  "dcmmeta_slice_dim": 2,
  "dcmmeta_version": 0.6,
  "global": {
    "const": {
      "AcquisitionMatrix": [104, 0, 0, 104],
      "AngioFlag": "N",
      "BitsAllocated": 16,
      "BitsStored": 12,
      "Columns": 728,
      "EchoNumbers": 1,
      "EchoTime": 20.0,
      "EchoTrainLength": 1,
      "FlipAngle": 30.0,
      "HighBit": 11,
      "ImageOrientationPatient": [1.0, -1e-16, 0.0, 1e-16, 0.97992470268924, -0.1993679439113],
      "ImagePositionPatient": [-729.45278453827, -705.97520707538, 122.56624713957],
      "ImageType": [
        "ORIGINAL",
        "PRIMARY",
        "M",
        "MB",
        "ND",
        "MOSAIC"
],
      "ImagedNucleus": "1H",
      "ImagingFrequency": 297.228761,
      "InPlanePhaseEncodingDirection": "COL",
      "MRAcquisitionType": "2D",
      "MagneticFieldStrength": 6.98,
      "Manufacturer": "SIEMENS",
      "ManufacturerModelName": "Investigational_Device_7T",
      "Modality": "MR",
      "NumberOfAverages": 1.0,
      "NumberOfPhaseEncodingSteps": 91,
      "PercentPhaseFieldOfView": 100.0,
      "PercentSampling": 100.0,
      "PerformedProcedureStepStartTime": "084204.984000",
      "PhotometricInterpretation": "MONOCHROME2",
      "PixelBandwidth": 1717.0,
      "PixelRepresentation": 0,
      "PixelSpacing": [2.0, 2.0],
      "ProtocolName": "mbep2d_bold_mb2_p3_AP 2iso",
      "RepetitionTime": 1000.0,
      "Rows": 728,
      "SAR": 0.0,
      "SamplesPerPixel": 1,
      "ScanOptions": [
        "PFP",
        "FS"
],
      "ScanningSequence": "EP",
      "SequenceName": "epfid2d1_104",
      "SequenceVariant": [
        "SK",
        "SS"
],
      "SeriesDescription": "mbep2d_bold_mb2_p3_AP 2iso",
      "SeriesNumber": 26,
      "SeriesTime": "094854.546000",
      "SliceLocation": -20.643132198969,
      "SliceThickness": 2.0,
      "SmallestImagePixelValue": 0,
      "SoftwareVersions": "syngo MR B17",
      "SpacingBetweenSlices": 2.0000000120211,
      "SpecificCharacterSet": "ISO_IR 100",
      "StudyID": "1",
      "StudyTime": "084204.531000",
      "TransmitCoilName": "CFMM_8Tx32Rx",
      "VariableFlipAngleFlag": "N",
      "WindowCenterWidthExplanation": "Algo1",
      "dBdt": 0.0},
    "slices": {}
  },
  "time": {
    "samples": {
      "AcquisitionNumber": [1, 2, 3, 4, 5, 6, 7, 8, 9, 10, 11, 12, 13, 14, 15, 16, 17, 18, 19, 20, 21, 22, 23, 24, 25, 26, 27, 28, 29, 30, 31, 32, 33, 34, 35, 36, 37, 38, 39, 40, 41, 42, 43, 44, 45, 46, 47, 48, 49, 50, 51, 52, 53, 54, 55, 56, 57, 58, 59, 60, 61, 62, 63, 64, 65, 66, 67, 68, 69, 70, 71, 72, 73, 74, 75, 76, 77, 78, 79, 80, 81, 82, 83, 84, 85, 86, 87, 88, 89, 90, 91, 92, 93, 94, 95, 96, 97, 98, 99, 100, 101, 102, 103, 104, 105, 106, 107, 108, 109, 110, 111, 112, 113, 114, 115, 116, 117, 118, 119, 120, 121, 122, 123, 124, 125, 126, 127, 128, 129, 130, 131, 132, 133, 134, 135, 136, 137, 138, 139, 140, 141, 142, 143, 144, 145, 146, 147, 148, 149, 150, 151, 152, 153, 154, 155, 156, 157, 158, 159, 160, 161, 162, 163, 164, 165, 166, 167, 168, 169, 170, 171, 172, 173, 174, 175, 176, 177, 178, 179, 180, 181, 182, 183, 184, 185, 186, 187, 188, 189, 190, 191, 192, 193, 194, 195, 196, 197, 198, 199, 200, 201, 202, 203, 204, 205, 206, 207, 208, 209, 210, 211, 212, 213, 214, 215, 216, 217, 218, 219, 220, 221, 222, 223, 224, 225, 226, 227, 228, 229, 230, 231, 232, 233, 234, 235, 236, 237, 238, 239, 240, 241, 242, 243, 244, 245, 246, 247, 248, 249, 250, 251, 252, 253, 254, 255, 256, 257, 258, 259, 260, 261, 262, 263, 264, 265, 266, 267, 268, 269, 270, 271, 272, 273, 274, 275, 276, 277, 278, 279, 280, 281, 282, 283, 284, 285, 286, 287, 288, 289, 290, 291, 292, 293, 294, 295, 296, 297, 298, 299, 300, 301, 302, 303, 304, 305, 306, 307, 308, 309, 310, 311, 312, 313, 314, 315, 316, 317, 318, 319, 320, 321, 322, 323, 324, 325, 326, 327, 328, 329, 330],
      "AcquisitionTime": ["094814.900000", "094815.902500", "094816.907500", "094817.910000", "094818.915000", "094819.920000", "094820.922500", "094821.927500", "094822.930000", "094823.935000", "094824.940000", "094825.942500", "094826.947500", "094827.950000", "094828.955000", "094829.960000", "094830.962500", "094831.967500", "094832.972500", "094833.975000", "094834.980000", "094835.982500", "094836.987500", "094837.992500", "094838.995000", "094840.000000", "094841.002500", "094842.007500", "094843.012500", "094844.015000", "094845.020000", "094846.022500", "094847.027500", "094848.032500", "094849.035000", "094850.040000", "094851.042500", "094852.047500", "094853.052500", "094854.055000", "094855.060000", "094856.062500", "094857.067500", "094858.072500", "094859.075000", "094900.080000", "094901.082500", "094902.087500", "094903.092500", "094904.095000", "094905.100000", "094906.105000", "094907.107500", "094908.112500", "094909.115000", "094910.120000", "094911.125000", "094912.127500", "094913.132500", "094914.135000", "094915.140000", "094916.145000", "094917.147500", "094918.152500", "094919.155000", "094920.160000", "094921.165000", "094922.167500", "094923.172500", "094924.175000", "094925.180000", "094926.185000", "094927.187500", "094928.192500", "094929.195000", "094930.200000", "094931.205000", "094932.207500", "094933.212500", "094934.215000", "094935.220000", "094936.225000", "094937.227500", "094938.232500", "094939.237500", "094940.240000", "094941.245000", "094942.247500", "094943.252500", "094944.257500", "094945.260000", "094946.265000", "094947.267500", "094948.272500", "094949.277500", "094950.280000", "094951.285000", "094952.287500", "094953.292500", "094954.297500", "094955.300000", "094956.305000", "094957.307500", "094958.312500", "094959.317500", "095000.320000", "095001.325000", "095002.327500", "095003.332500", "095004.337500", "095005.340000", "095006.345000", "095007.350000", "095008.352500", "095009.357500", "095010.360000", "095011.365000", "095012.370000", "095013.372500", "095014.377500", "095015.380000", "095016.385000", "095017.390000", "095018.392500", "095019.397500", "095020.400000", "095021.405000", "095022.410000", "095023.412500", "095024.417500", "095025.420000", "095026.425000", "095027.430000", "095028.432500", "095029.437500", "095030.440000", "095031.445000", "095032.450000", "095033.452500", "095034.457500", "095035.460000", "095036.465000", "095037.470000", "095038.472500", "095039.477500", "095040.482500", "095041.485000", "095042.490000", "095043.492500", "095044.497500", "095045.502500", "095046.505000", "095047.510000", "095048.512500", "095049.517500", "095050.522500", "095051.525000", "095052.530000", "095053.532500", "095054.537500", "095055.542500", "095056.545000", "095057.550000", "095058.552500", "095059.557500", "095100.562500", "095101.565000", "095102.570000", "095103.572500", "095104.577500", "095105.582500", "095106.585000", "095107.590000", "095108.595000", "095109.597500", "095110.602500", "095111.605000", "095112.610000", "095113.615000", "095114.617500", "095115.622500", "095116.625000", "095117.630000", "095118.635000", "095119.637500", "095120.642500", "095121.645000", "095122.650000", "095123.655000", "095124.657500", "095125.662500", "095126.665000", "095127.670000", "095128.675000", "095129.677500", "095130.682500", "095131.685000", "095132.690000", "095133.695000", "095134.697500", "095135.702500", "095136.705000", "095137.710000", "095138.715000", "095139.717500", "095140.722500", "095141.727500", "095142.730000", "095143.735000", "095144.737500", "095145.742500", "095146.747500", "095147.750000", "095148.755000", "095149.757500", "095150.762500", "095151.767500", "095152.770000", "095153.775000", "095154.777500", "095155.782500", "095156.787500", "095157.790000", "095158.795000", "095159.797500", "095200.802500", "095201.807500", "095202.810000", "095203.815000", "095204.817500", "095205.822500", "095206.827500", "095207.830000", "095208.835000", "095209.837500", "095210.842500", "095211.847500", "095212.850000", "095213.855000", "095214.860000", "095215.862500", "095216.867500", "095217.870000", "095218.875000", "095219.880000", "095220.882500", "095221.887500", "095222.890000", "095223.895000", "095224.900000", "095225.902500", "095226.907500", "095227.910000", "095228.915000", "095229.920000", "095230.922500", "095231.927500", "095232.930000", "095233.935000", "095234.940000", "095235.942500", "095236.947500", "095237.950000", "095238.955000", "095239.960000", "095240.962500", "095241.967500", "095242.972500", "095243.975000", "095244.980000", "095245.982500", "095246.987500", "095247.992500", "095248.995000", "095250.000000", "095251.002500", "095252.007500", "095253.012500", "095254.015000", "095255.020000", "095256.022500", "095257.027500", "095258.032500", "095259.035000", "095300.040000", "095301.042500", "095302.047500", "095303.052500", "095304.055000", "095305.060000", "095306.062500", "095307.067500", "095308.072500", "095309.075000", "095310.080000", "095311.082500", "095312.087500", "095313.092500", "095314.095000", "095315.100000", "095316.105000", "095317.107500", "095318.112500", "095319.115000", "095320.120000", "095321.125000", "095322.127500", "095323.132500", "095324.135000", "095325.140000", "095326.145000", "095327.147500", "095328.152500", "095329.155000", "095330.160000", "095331.165000", "095332.167500", "095333.172500", "095334.175000", "095335.180000", "095336.185000", "095337.187500", "095338.192500", "095339.195000", "095340.200000", "095341.205000", "095342.207500", "095343.212500", "095344.215000", "095345.220000"],
      "ContentTime": ["094854.562000", "094854.562000", "094854.562000", "094854.562000", "094854.562000", "094854.562000", "094854.562000", "094854.578000", "094854.578000", "094854.578000", "094854.578000", "094854.593000", "094854.593000", "094854.593000", "094854.593000", "094854.593000", "094854.593000", "094854.609000", "094854.609000", "094854.609000", "094854.609000", "094854.625000", "094854.625000", "094854.625000", "094854.625000", "094854.625000", "094854.625000", "094854.625000", "094854.640000", "094854.640000", "094854.640000", "094854.640000", "094854.640000", "094854.640000", "094854.640000", "094854.656000", "094854.656000", "094854.656000", "094854.656000", "094914.515000", "094914.515000", "094914.515000", "094914.531000", "094914.531000", "094914.531000", "094914.531000", "094914.531000", "094914.531000", "094914.546000", "094914.546000", "094914.546000", "094914.546000", "094914.546000", "094914.562000", "094914.562000", "094914.562000", "094914.562000", "094914.562000", "094914.578000", "094934.515000", "094934.515000", "094934.515000", "094934.531000", "094934.546000", "094934.546000", "094934.546000", "094934.546000", "094934.546000", "094934.546000", "094934.546000", "094934.562000", "094934.562000", "094934.562000", "094934.562000", "094934.562000", "094934.578000", "094934.578000", "094934.578000", "094934.578000", "094954.515000", "094954.515000", "094954.515000", "094954.531000", "094954.531000", "094954.531000", "094954.531000", "094954.546000", "094954.546000", "094954.546000", "094954.546000", "094954.546000", "094954.546000", "094954.546000", "094954.562000", "094954.562000", "094954.562000", "094954.562000", "094954.562000", "094954.562000", "095014.515000", "095014.515000", "095014.515000", "095014.531000", "095014.531000", "095014.531000", "095014.531000", "095014.531000", "095014.531000", "095014.546000", "095014.546000", "095014.546000", "095014.546000", "095014.562000", "095014.562000", "095014.562000", "095014.562000", "095014.562000", "095014.562000", "095014.578000", "095034.515000", "095034.531000", "095034.531000", "095034.531000", "095034.531000", "095034.546000", "095034.546000", "095034.546000", "095034.546000", "095034.546000", "095034.546000", "095034.546000", "095034.562000", "095034.562000", "095034.562000", "095034.562000", "095034.578000", "095034.578000", "095034.578000", "095034.578000", "095054.515000", "095054.515000", "095054.515000", "095054.531000", "095054.531000", "095054.546000", "095054.546000", "095054.546000", "095054.546000", "095054.546000", "095054.546000", "095054.546000", "095054.562000", "095054.562000", "095054.562000", "095054.562000", "095054.562000", "095054.562000", "095054.562000", "095054.578000", "095114.515000", "095114.515000", "095114.515000", "095114.531000", "095114.531000", "095114.531000", "095114.531000", "095114.531000", "095114.546000", "095114.546000", "095114.546000", "095114.562000", "095114.562000", "095114.578000", "095114.578000", "095114.578000", "095114.578000", "095114.578000", "095114.578000", "095114.593000", "095134.515000", "095134.515000", "095134.515000", "095134.531000", "095134.531000", "095134.531000", "095134.531000", "095134.546000", "095134.546000", "095134.546000", "095134.546000", "095134.546000", "095134.546000", "095134.546000", "095134.562000", "095134.562000", "095134.562000", "095134.562000", "095134.562000", "095134.562000", "095154.515000", "095154.515000", "095154.515000", "095154.531000", "095154.546000", "095154.562000", "095154.562000", "095154.562000", "095154.562000", "095154.562000", "095154.562000", "095154.578000", "095154.578000", "095154.578000", "095154.578000", "095154.578000", "095154.578000", "095154.578000", "095154.593000", "095154.593000", "095214.515000", "095214.515000", "095214.515000", "095214.531000", "095214.531000", "095214.531000", "095214.531000", "095214.531000", "095214.531000", "095214.546000", "095214.546000", "095214.546000", "095214.546000", "095214.546000", "095214.546000", "095214.562000", "095214.562000", "095214.562000", "095214.562000", "095214.562000", "095234.515000", "095234.515000", "095234.531000", "095234.531000", "095234.531000", "095234.546000", "095234.546000", "095234.546000", "095234.546000", "095234.546000", "095234.546000", "095234.546000", "095234.562000", "095234.562000", "095234.562000", "095234.562000", "095234.562000", "095234.562000", "095234.562000", "095234.578000", "095254.515000", "095254.515000", "095254.515000", "095254.531000", "095254.531000", "095254.546000", "095254.546000", "095254.546000", "095254.546000", "095254.546000", "095254.562000", "095254.562000", "095254.562000", "095254.562000", "095254.562000", "095254.562000", "095254.562000", "095254.578000", "095254.578000", "095254.578000", "095314.515000", "095314.515000", "095314.515000", "095314.531000", "095314.531000", "095314.531000", "095314.546000", "095314.546000", "095314.546000", "095314.546000", "095314.546000", "095314.546000", "095314.562000", "095314.562000", "095314.562000", "095314.562000", "095314.562000", "095314.562000", "095314.562000", "095314.578000", "095334.515000", "095334.515000", "095334.515000", "095334.515000", "095334.531000", "095334.531000", "095334.531000", "095334.531000", "095334.531000", "095334.546000", "095334.546000", "095334.546000", "095334.546000", "095334.546000", "095334.562000", "095334.562000", "095334.562000", "095334.562000", "095334.562000", "095334.578000", "095350.328000", "095350.328000", "095350.328000", "095350.343000", "095350.343000", "095350.343000", "095350.343000", "095350.343000", "095350.343000", "095350.359000", "095350.359000"],
      "InstanceCreationTime": ["094854.562000", "094854.562000", "094854.562000", "094854.562000", "094854.562000", "094854.562000", "094854.562000", "094854.578000", "094854.578000", "094854.578000", "094854.578000", "094854.593000", "094854.593000", "094854.593000", "094854.593000", "094854.593000", "094854.593000", "094854.609000", "094854.609000", "094854.609000", "094854.609000", "094854.625000", "094854.625000", "094854.625000", "094854.625000", "094854.625000", "094854.625000", "094854.625000", "094854.640000", "094854.640000", "094854.640000", "094854.640000", "094854.640000", "094854.640000", "094854.640000", "094854.656000", "094854.656000", "094854.656000", "094854.656000", "094914.515000", "094914.515000", "094914.515000", "094914.531000", "094914.531000", "094914.531000", "094914.531000", "094914.531000", "094914.531000", "094914.546000", "094914.546000", "094914.546000", "094914.546000", "094914.546000", "094914.562000", "094914.562000", "094914.562000", "094914.562000", "094914.562000", "094914.578000", "094934.515000", "094934.515000", "094934.515000", "094934.531000", "094934.546000", "094934.546000", "094934.546000", "094934.546000", "094934.546000", "094934.546000", "094934.546000", "094934.562000", "094934.562000", "094934.562000", "094934.562000", "094934.562000", "094934.578000", "094934.578000", "094934.578000", "094934.578000", "094954.515000", "094954.515000", "094954.515000", "094954.531000", "094954.531000", "094954.531000", "094954.531000", "094954.546000", "094954.546000", "094954.546000", "094954.546000", "094954.546000", "094954.546000", "094954.546000", "094954.562000", "094954.562000", "094954.562000", "094954.562000", "094954.562000", "094954.562000", "095014.515000", "095014.515000", "095014.515000", "095014.531000", "095014.531000", "095014.531000", "095014.531000", "095014.531000", "095014.531000", "095014.546000", "095014.546000", "095014.546000", "095014.546000", "095014.562000", "095014.562000", "095014.562000", "095014.562000", "095014.562000", "095014.562000", "095014.578000", "095034.515000", "095034.531000", "095034.531000", "095034.531000", "095034.531000", "095034.546000", "095034.546000", "095034.546000", "095034.546000", "095034.546000", "095034.546000", "095034.546000", "095034.562000", "095034.562000", "095034.562000", "095034.562000", "095034.578000", "095034.578000", "095034.578000", "095034.578000", "095054.515000", "095054.515000", "095054.515000", "095054.531000", "095054.531000", "095054.546000", "095054.546000", "095054.546000", "095054.546000", "095054.546000", "095054.546000", "095054.546000", "095054.562000", "095054.562000", "095054.562000", "095054.562000", "095054.562000", "095054.562000", "095054.562000", "095054.578000", "095114.515000", "095114.515000", "095114.515000", "095114.531000", "095114.531000", "095114.531000", "095114.531000", "095114.531000", "095114.546000", "095114.546000", "095114.546000", "095114.562000", "095114.562000", "095114.578000", "095114.578000", "095114.578000", "095114.578000", "095114.578000", "095114.578000", "095114.593000", "095134.515000", "095134.515000", "095134.515000", "095134.531000", "095134.531000", "095134.531000", "095134.531000", "095134.546000", "095134.546000", "095134.546000", "095134.546000", "095134.546000", "095134.546000", "095134.546000", "095134.562000", "095134.562000", "095134.562000", "095134.562000", "095134.562000", "095134.562000", "095154.515000", "095154.515000", "095154.515000", "095154.531000", "095154.546000", "095154.562000", "095154.562000", "095154.562000", "095154.562000", "095154.562000", "095154.562000", "095154.578000", "095154.578000", "095154.578000", "095154.578000", "095154.578000", "095154.578000", "095154.578000", "095154.593000", "095154.593000", "095214.515000", "095214.515000", "095214.515000", "095214.531000", "095214.531000", "095214.531000", "095214.531000", "095214.531000", "095214.531000", "095214.546000", "095214.546000", "095214.546000", "095214.546000", "095214.546000", "095214.546000", "095214.562000", "095214.562000", "095214.562000", "095214.562000", "095214.562000", "095234.515000", "095234.515000", "095234.531000", "095234.531000", "095234.531000", "095234.546000", "095234.546000", "095234.546000", "095234.546000", "095234.546000", "095234.546000", "095234.546000", "095234.562000", "095234.562000", "095234.562000", "095234.562000", "095234.562000", "095234.562000", "095234.562000", "095234.578000", "095254.515000", "095254.515000", "095254.515000", "095254.531000", "095254.531000", "095254.546000", "095254.546000", "095254.546000", "095254.546000", "095254.546000", "095254.562000", "095254.562000", "095254.562000", "095254.562000", "095254.562000", "095254.562000", "095254.562000", "095254.578000", "095254.578000", "095254.578000", "095314.515000", "095314.515000", "095314.515000", "095314.531000", "095314.531000", "095314.531000", "095314.546000", "095314.546000", "095314.546000", "095314.546000", "095314.546000", "095314.546000", "095314.562000", "095314.562000", "095314.562000", "095314.562000", "095314.562000", "095314.562000", "095314.562000", "095314.578000", "095334.515000", "095334.515000", "095334.515000", "095334.515000", "095334.531000", "095334.531000", "095334.531000", "095334.531000", "095334.531000", "095334.546000", "095334.546000", "095334.546000", "095334.546000", "095334.546000", "095334.562000", "095334.562000", "095334.562000", "095334.562000", "095334.562000", "095334.578000", "095350.328000", "095350.328000", "095350.328000", "095350.343000", "095350.343000", "095350.343000", "095350.343000", "095350.343000", "095350.343000", "095350.359000", "095350.359000"],
      "InstanceNumber": [1, 2, 3, 4, 5, 6, 7, 8, 9, 10, 11, 12, 13, 14, 15, 16, 17, 18, 19, 20, 21, 22, 23, 24, 25, 26, 27, 28, 29, 30, 31, 32, 33, 34, 35, 36, 37, 38, 39, 40, 41, 42, 43, 44, 45, 46, 47, 48, 49, 50, 51, 52, 53, 54, 55, 56, 57, 58, 59, 60, 61, 62, 63, 64, 65, 66, 67, 68, 69, 70, 71, 72, 73, 74, 75, 76, 77, 78, 79, 80, 81, 82, 83, 84, 85, 86, 87, 88, 89, 90, 91, 92, 93, 94, 95, 96, 97, 98, 99, 100, 101, 102, 103, 104, 105, 106, 107, 108, 109, 110, 111, 112, 113, 114, 115, 116, 117, 118, 119, 120, 121, 122, 123, 124, 125, 126, 127, 128, 129, 130, 131, 132, 133, 134, 135, 136, 137, 138, 139, 140, 141, 142, 143, 144, 145, 146, 147, 148, 149, 150, 151, 152, 153, 154, 155, 156, 157, 158, 159, 160, 161, 162, 163, 164, 165, 166, 167, 168, 169, 170, 171, 172, 173, 174, 175, 176, 177, 178, 179, 180, 181, 182, 183, 184, 185, 186, 187, 188, 189, 190, 191, 192, 193, 194, 195, 196, 197, 198, 199, 200, 201, 202, 203, 204, 205, 206, 207, 208, 209, 210, 211, 212, 213, 214, 215, 216, 217, 218, 219, 220, 221, 222, 223, 224, 225, 226, 227, 228, 229, 230, 231, 232, 233, 234, 235, 236, 237, 238, 239, 240, 241, 242, 243, 244, 245, 246, 247, 248, 249, 250, 251, 252, 253, 254, 255, 256, 257, 258, 259, 260, 261, 262, 263, 264, 265, 266, 267, 268, 269, 270, 271, 272, 273, 274, 275, 276, 277, 278, 279, 280, 281, 282, 283, 284, 285, 286, 287, 288, 289, 290, 291, 292, 293, 294, 295, 296, 297, 298, 299, 300, 301, 302, 303, 304, 305, 306, 307, 308, 309, 310, 311, 312, 313, 314, 315, 316, 317, 318, 319, 320, 321, 322, 323, 324, 325, 326, 327, 328, 329, 330],
      "LargestImagePixelValue": [2997, 2915, 2950, 2892, 2902, 2903, 2898, 2906, 2935, 2879, 2935, 2931, 2875, 2889, 2884, 2859, 2886, 2966, 2877, 2941, 2869, 2872, 2921, 2924, 2930, 2891, 2924, 2923, 2899, 2915, 2872, 2903, 2970, 2895, 2891, 2924, 2915, 2958, 2947, 2952, 2924, 2914, 2898, 2931, 2915, 2861, 2938, 2884, 2893, 2925, 2906, 2900, 2938, 2928, 2964, 2919, 2882, 2947, 2939, 2901, 2922, 2966, 3001, 2963, 2997, 2915, 2912, 2943, 2928, 2919, 2921, 2925, 2937, 2943, 2962, 2925, 2929, 2944, 2965, 2935, 2964, 2926, 2937, 2973, 2926, 2903, 2926, 2886, 2960, 2941, 2912, 2900, 2944, 2949, 2970, 2905, 2949, 2943, 2966, 2923, 2935, 2935, 2964, 2999, 3028, 2997, 3009, 3002, 2961, 2958, 2950, 3004, 2995, 3007, 2963, 2964, 2926, 3029, 2966, 2980, 2981, 3007, 3016, 2990, 3005, 2911, 2996, 2969, 2956, 2978, 2930, 2958, 3010, 2974, 2954, 2892, 2954, 2938, 2975, 2936, 2964, 2950, 2991, 2988, 2932, 2941, 2956, 2957, 2997, 3001, 3007, 3023, 2972, 2967, 2982, 2997, 2962, 2989, 2954, 2926, 2918, 2913, 2936, 2978, 3008, 2928, 2986, 2975, 3007, 2986, 2946, 2928, 2984, 3014, 2975, 2993, 2978, 3004, 2962, 2966, 2935, 2977, 2998, 2984, 3029, 2945, 2980, 3000, 2988, 2973, 2967, 2997, 3005, 3016, 2983, 2995, 2976, 2998, 3011, 2982, 2911, 3017, 2993, 2974, 2962, 2953, 2945, 3029, 2963, 3007, 3045, 3034, 2991, 2979, 2956, 2964, 2962, 2971, 2989, 2953, 2922, 3019, 2988, 3044, 3020, 2977, 2972, 3044, 3018, 2960, 3006, 3009, 3028, 3011, 3013, 2987, 3008, 2988, 3068, 3009, 3004, 2996, 3005, 3001, 3011, 2975, 2966, 3043, 3005, 2989, 3010, 3034, 2994, 3007, 3008, 2957, 3028, 2993, 2968, 2986, 2981, 2938, 2957, 3014, 3020, 2943, 2998, 3011, 2959, 2962, 2983, 2960, 2990, 2979, 3014, 2994, 3015, 3018, 2992, 2988, 2968, 3002, 3023, 3023, 2998, 2971, 2970, 2983, 3016, 2999, 2989, 2937, 2947, 2922, 2997, 2939, 2976, 3027, 3026, 2943, 3014, 2992, 2956, 2986, 3002, 2920, 2981, 2952, 3001, 3006, 2941, 2972, 3040, 3067, 2977, 2984, 2955, 2957, 3013, 2957, 2997, 3013, 2982, 2993, 2983, 2952, 3019, 2950, 3003, 2997],
      "WindowCenter": [443.0, 442.0, 442.0, 441.0, 441.0, 441.0, 441.0, 441.0, 442.0, 442.0, 442.0, 442.0, 441.0, 441.0, 441.0, 440.0, 440.0, 441.0, 440.0, 441.0, 440.0, 439.0, 439.0, 439.0, 439.0, 439.0, 439.0, 439.0, 439.0, 439.0, 439.0, 438.0, 439.0, 439.0, 439.0, 440.0, 441.0, 440.0, 440.0, 440.0, 440.0, 439.0, 440.0, 440.0, 440.0, 439.0, 441.0, 440.0, 441.0, 441.0, 440.0, 440.0, 441.0, 440.0, 440.0, 441.0, 440.0, 441.0, 441.0, 441.0, 441.0, 441.0, 441.0, 442.0, 442.0, 442.0, 442.0, 441.0, 441.0, 440.0, 440.0, 440.0, 440.0, 439.0, 440.0, 439.0, 439.0, 440.0, 440.0, 440.0, 440.0, 441.0, 441.0, 440.0, 440.0, 439.0, 440.0, 440.0, 441.0, 441.0, 439.0, 439.0, 439.0, 438.0, 439.0, 439.0, 439.0, 439.0, 440.0, 440.0, 440.0, 440.0, 440.0, 441.0, 442.0, 442.0, 442.0, 442.0, 442.0, 442.0, 441.0, 441.0, 441.0, 442.0, 441.0, 442.0, 441.0, 441.0, 440.0, 440.0, 440.0, 440.0, 440.0, 440.0, 441.0, 441.0, 441.0, 440.0, 440.0, 440.0, 439.0, 440.0, 441.0, 440.0, 440.0, 441.0, 440.0, 440.0, 440.0, 440.0, 440.0, 439.0, 439.0, 440.0, 440.0, 440.0, 440.0, 440.0, 441.0, 441.0, 440.0, 441.0, 441.0, 442.0, 442.0, 443.0, 443.0, 442.0, 442.0, 442.0, 441.0, 441.0, 441.0, 441.0, 440.0, 439.0, 440.0, 440.0, 441.0, 441.0, 440.0, 440.0, 440.0, 439.0, 439.0, 440.0, 439.0, 439.0, 439.0, 439.0, 438.0, 439.0, 439.0, 439.0, 440.0, 439.0, 440.0, 440.0, 440.0, 440.0, 439.0, 439.0, 439.0, 440.0, 440.0, 440.0, 440.0, 441.0, 441.0, 442.0, 441.0, 443.0, 442.0, 442.0, 441.0, 441.0, 440.0, 441.0, 440.0, 441.0, 441.0, 441.0, 441.0, 441.0, 440.0, 440.0, 440.0, 440.0, 440.0, 440.0, 440.0, 441.0, 441.0, 441.0, 441.0, 441.0, 441.0, 442.0, 441.0, 441.0, 441.0, 441.0, 442.0, 441.0, 441.0, 441.0, 441.0, 440.0, 441.0, 440.0, 440.0, 441.0, 441.0, 441.0, 441.0, 441.0, 441.0, 441.0, 441.0, 440.0, 440.0, 441.0, 441.0, 441.0, 441.0, 441.0, 441.0, 440.0, 440.0, 440.0, 440.0, 440.0, 440.0, 440.0, 441.0, 439.0, 440.0, 440.0, 439.0, 440.0, 441.0, 440.0, 442.0, 442.0, 442.0, 442.0, 442.0, 441.0, 440.0, 440.0, 440.0, 441.0, 441.0, 441.0, 441.0, 440.0, 440.0, 439.0, 439.0, 439.0, 439.0, 439.0, 439.0, 439.0, 440.0, 439.0, 440.0, 441.0, 440.0, 440.0, 441.0, 441.0, 440.0, 440.0, 440.0, 440.0, 440.0, 441.0, 442.0, 442.0, 441.0, 441.0, 441.0, 442.0, 441.0, 442.0, 442.0, 442.0, 442.0, 440.0, 440.0, 440.0, 440.0, 440.0, 439.0, 439.0, 440.0, 440.0, 440.0, 440.0],
