{
  "AcquisitionMatrixPE": 104,
  "AcquisitionNumber": 1,
  "AcquisitionTime": "10:07:37.207500",
  "BandwidthPerPixelPhaseEncode": 43.054,
  "BaseResolution": 104,
  "CoilString": "C:E1_2",
  "ConversionSoftware": "dcm2niix",
  "ConversionSoftwareVersion": "v1.0.20191031",
  "DerivedVendorReportedEchoSpacing": 0.000669999,
  "DeviceSerialNumber": "18932",
  "DwellTime": 2.8e-06,
  "EchoTime": 0.02,
  "EffectiveEchoSpacing": 0.000223333,
  "FlipAngle": 30,
  "ImageComments": "Unaliased_MB2_PE2",
  "ImageOrientationPatientDICOM": [1, -1e-16, 0, 1e-16, 0.979925, -0.199368],
  "ImageType": [
    "ORIGINAL",
    "PRIMARY",
    "M",
    "MB",
    "ND",
    "MOSAIC"
],
  "ImagingFrequency": 297.229,
  "InPlanePhaseEncodingDirectionDICOM": "COL",
  "InstitutionAddress": "Richmond_Street_North_1151_London_409EF2_Ontario_CA_N6A_5B7",
  "InstitutionName": "Robarts_Reserch_Institute",
  "InstitutionalDepartmentName": "Department",
  "MRAcquisitionType": "2D",
  "MagneticFieldStrength": 6.98,
  "Manufacturer": "Siemens",
  "ManufacturersModelName": "Investigational_Device_7T",
  "Modality": "MR",
  "MultibandAccelerationFactor": 2,
  "ParallelReductionFactorInPlane": 3,
  "PartialFourier": 0.875,
  "PatientPosition": "HFS",
  "PercentPhaseFOV": 100,
  "PhaseEncodingDirection": "j-",
  "PhaseEncodingSteps": 91,
  "PhaseResolution": 1,
  "PixelBandwidth": 1717,
  "ProcedureStepDescription": "Diedrichsen_SeqRep4",
  "ProtocolName": "mbep2d_bold_mb2_p3_AP_2iso",
  "PulseSequenceDetails": "%CustomerSeq%_cmrr_mbep2d_bold",
  "ReceiveCoilName": "CFMM_8Tx32Rx",
  "ReconMatrixPE": 104,
  "RefLinesPE": 36,
  "RepetitionTime": 1,
  "ScanOptions": "PFP_FS",
  "ScanningSequence": "EP",
  "SequenceName": "epfid2d1_104",
  "SequenceVariant": "SK_SS",
  "SeriesDescription": "mbep2d_bold_mb2_p3_AP_2iso",
  "SeriesNumber": 32,
  "ShimSetting": [5, 2115, 64, 1356, 38, -3, 144, -167],
  "SliceThickness": 2,
  "SliceTiming": [0, 0.2275, 0.455, 0.6825, 0.9125, 0.135, 0.365, 0.5925, 0.82, 0.045, 0.2725, 0.5, 0.73, 0.9575, 0.1825, 0.41, 0.6375, 0.865, 0.09, 0.3175, 0.5475, 0.775, 0, 0.2275, 0.455, 0.6825, 0.9125, 0.135, 0.365, 0.5925, 0.82, 0.045, 0.2725, 0.5, 0.73, 0.9575, 0.1825, 0.41, 0.6375, 0.865, 0.09, 0.3175, 0.5475, 0.775],
  "SoftwareVersions": "syngo_MR_B17",
  "SpacingBetweenSlices": 2,
  "StationName": "MASTER",
  "TaskName": "dsp",
  "TotalReadoutTime": 0.0230033,
  "TxRefAmp": 120,
  "dcmmeta_affine": [
    [-2.0, 2.000000033724767e-16, -3.987358960979601e-17, 105.4527816772461],
    [2.000000033724767e-16, 1.9598493576049805, -0.3987358808517456, -107.36229705810547],
    [0.0, 0.3987358808517456, 1.9598493576049805, -42.90914535522461],
    [0.0, 0.0, 0.0, 1.0]
],
  "dcmmeta_reorient_transform": [
    [0.0, -1.0, 0.0, 103.0],
    [1.0, 0.0, 0.0, 0.0],
    [0.0, 0.0, 1.0, 0.0],
    [0.0, 0.0, 0.0, 1.0]
],
  "dcmmeta_shape": [104, 104, 44, 330],
  "dcmmeta_slice_dim": 2,
  "dcmmeta_version": 0.6,
  "global": {
    "const": {
      "AcquisitionMatrix": [104, 0, 0, 104],
      "AngioFlag": "N",
      "BitsAllocated": 16,
      "BitsStored": 12,
      "Columns": 728,
      "EchoNumbers": 1,
      "EchoTime": 20.0,
      "EchoTrainLength": 1,
      "FlipAngle": 30.0,
      "HighBit": 11,
      "ImageOrientationPatient": [1.0, -1e-16, 0.0, 1e-16, 0.97992470268924, -0.1993679439113],
      "ImagePositionPatient": [-729.45278453827, -705.97520707538, 122.56624713957],
      "ImageType": [
        "ORIGINAL",
        "PRIMARY",
        "M",
        "MB",
        "ND",
        "MOSAIC"
],
      "ImagedNucleus": "1H",
      "ImagingFrequency": 297.228781,
      "InPlanePhaseEncodingDirection": "COL",
      "MRAcquisitionType": "2D",
      "MagneticFieldStrength": 6.98,
      "Manufacturer": "SIEMENS",
      "ManufacturerModelName": "Investigational_Device_7T",
      "Modality": "MR",
      "NumberOfAverages": 1.0,
      "NumberOfPhaseEncodingSteps": 91,
      "PercentPhaseFieldOfView": 100.0,
      "PercentSampling": 100.0,
      "PerformedProcedureStepStartTime": "084204.984000",
      "PhotometricInterpretation": "MONOCHROME2",
      "PixelBandwidth": 1717.0,
      "PixelRepresentation": 0,
      "PixelSpacing": [2.0, 2.0],
      "ProtocolName": "mbep2d_bold_mb2_p3_AP 2iso",
      "RepetitionTime": 1000.0,
      "Rows": 728,
      "SAR": 0.0,
      "SamplesPerPixel": 1,
      "ScanOptions": [
        "PFP",
        "FS"
],
      "ScanningSequence": "EP",
      "SequenceName": "epfid2d1_104",
      "SequenceVariant": [
        "SK",
        "SS"
],
      "SeriesDescription": "mbep2d_bold_mb2_p3_AP 2iso",
      "SeriesNumber": 32,
      "SeriesTime": "100814.546000",
      "SliceLocation": -20.643132198969,
      "SliceThickness": 2.0,
      "SmallestImagePixelValue": 0,
      "SoftwareVersions": "syngo MR B17",
      "SpacingBetweenSlices": 2.0000000120211,
      "SpecificCharacterSet": "ISO_IR 100",
      "StudyID": "1",
      "StudyTime": "084204.531000",
      "TransmitCoilName": "CFMM_8Tx32Rx",
      "VariableFlipAngleFlag": "N",
      "WindowCenterWidthExplanation": "Algo1",
      "dBdt": 0.0},
    "slices": {}
  },
  "time": {
    "samples": {
      "AcquisitionNumber": [1, 2, 3, 4, 5, 6, 7, 8, 9, 10, 11, 12, 13, 14, 15, 16, 17, 18, 19, 20, 21, 22, 23, 24, 25, 26, 27, 28, 29, 30, 31, 32, 33, 34, 35, 36, 37, 38, 39, 40, 41, 42, 43, 44, 45, 46, 47, 48, 49, 50, 51, 52, 53, 54, 55, 56, 57, 58, 59, 60, 61, 62, 63, 64, 65, 66, 67, 68, 69, 70, 71, 72, 73, 74, 75, 76, 77, 78, 79, 80, 81, 82, 83, 84, 85, 86, 87, 88, 89, 90, 91, 92, 93, 94, 95, 96, 97, 98, 99, 100, 101, 102, 103, 104, 105, 106, 107, 108, 109, 110, 111, 112, 113, 114, 115, 116, 117, 118, 119, 120, 121, 122, 123, 124, 125, 126, 127, 128, 129, 130, 131, 132, 133, 134, 135, 136, 137, 138, 139, 140, 141, 142, 143, 144, 145, 146, 147, 148, 149, 150, 151, 152, 153, 154, 155, 156, 157, 158, 159, 160, 161, 162, 163, 164, 165, 166, 167, 168, 169, 170, 171, 172, 173, 174, 175, 176, 177, 178, 179, 180, 181, 182, 183, 184, 185, 186, 187, 188, 189, 190, 191, 192, 193, 194, 195, 196, 197, 198, 199, 200, 201, 202, 203, 204, 205, 206, 207, 208, 209, 210, 211, 212, 213, 214, 215, 216, 217, 218, 219, 220, 221, 222, 223, 224, 225, 226, 227, 228, 229, 230, 231, 232, 233, 234, 235, 236, 237, 238, 239, 240, 241, 242, 243, 244, 245, 246, 247, 248, 249, 250, 251, 252, 253, 254, 255, 256, 257, 258, 259, 260, 261, 262, 263, 264, 265, 266, 267, 268, 269, 270, 271, 272, 273, 274, 275, 276, 277, 278, 279, 280, 281, 282, 283, 284, 285, 286, 287, 288, 289, 290, 291, 292, 293, 294, 295, 296, 297, 298, 299, 300, 301, 302, 303, 304, 305, 306, 307, 308, 309, 310, 311, 312, 313, 314, 315, 316, 317, 318, 319, 320, 321, 322, 323, 324, 325, 326, 327, 328, 329, 330],
      "AcquisitionTime": ["100737.207500", "100738.210000", "100739.215000", "100740.217500", "100741.222500", "100742.227500", "100743.230000", "100744.235000", "100745.237500", "100746.242500", "100747.247500", "100748.250000", "100749.255000", "100750.260000", "100751.262500", "100752.267500", "100753.270000", "100754.275000", "100755.280000", "100756.282500", "100757.287500", "100758.290000", "100759.295000", "100800.300000", "100801.302500", "100802.307500", "100803.310000", "100804.315000", "100805.320000", "100806.322500", "100807.327500", "100808.330000", "100809.335000", "100810.340000", "100811.342500", "100812.347500", "100813.350000", "100814.355000", "100815.360000", "100816.362500", "100817.367500", "100818.370000", "100819.375000", "100820.380000", "100821.382500", "100822.387500", "100823.392500", "100824.395000", "100825.400000", "100826.402500", "100827.407500", "100828.412500", "100829.415000", "100830.420000", "100831.422500", "100832.427500", "100833.432500", "100834.435000", "100835.440000", "100836.442500", "100837.447500", "100838.452500", "100839.455000", "100840.460000", "100841.462500", "100842.467500", "100843.472500", "100844.475000", "100845.480000", "100846.482500", "100847.487500", "100848.492500", "100849.495000", "100850.500000", "100851.502500", "100852.507500", "100853.512500", "100854.515000", "100855.520000", "100856.525000", "100857.527500", "100858.532500", "100859.535000", "100900.540000", "100901.545000", "100902.547500", "100903.552500", "100904.555000", "100905.560000", "100906.565000", "100907.567500", "100908.572500", "100909.575000", "100910.580000", "100911.585000", "100912.587500", "100913.592500", "100914.595000", "100915.600000", "100916.605000", "100917.607500", "100918.612500", "100919.615000", "100920.620000", "100921.625000", "100922.627500", "100923.632500", "100924.637500", "100925.640000", "100926.645000", "100927.647500", "100928.652500", "100929.657500", "100930.660000", "100931.665000", "100932.667500", "100933.672500", "100934.677500", "100935.680000", "100936.685000", "100937.687500", "100938.692500", "100939.697500", "100940.700000", "100941.705000", "100942.707500", "100943.712500", "100944.717500", "100945.720000", "100946.725000", "100947.727500", "100948.732500", "100949.737500", "100950.740000", "100951.745000", "100952.747500", "100953.752500", "100954.757500", "100955.760000", "100956.765000", "100957.770000", "100958.772500", "100959.777500", "101000.780000", "101001.785000", "101002.790000", "101003.792500", "101004.797500", "101005.800000", "101006.805000", "101007.810000", "101008.812500", "101009.817500", "101010.820000", "101011.825000", "101012.830000", "101013.832500", "101014.837500", "101015.840000", "101016.845000", "101017.850000", "101018.852500", "101019.857500", "101020.860000", "101021.865000", "101022.870000", "101023.872500", "101024.877500", "101025.882500", "101026.885000", "101027.890000", "101028.892500", "101029.897500", "101030.902500", "101031.905000", "101032.910000", "101033.912500", "101034.917500", "101035.922500", "101036.925000", "101037.930000", "101038.932500", "101039.937500", "101040.942500", "101041.945000", "101042.950000", "101043.952500", "101044.957500", "101045.962500", "101046.965000", "101047.970000", "101048.972500", "101049.977500", "101050.982500", "101051.985000", "101052.990000", "101053.992500", "101054.997500", "101056.002500", "101057.005000", "101058.010000", "101059.015000", "101100.017500", "101101.022500", "101102.025000", "101103.030000", "101104.035000", "101105.037500", "101106.042500", "101107.045000", "101108.050000", "101109.055000", "101110.057500", "101111.062500", "101112.065000", "101113.070000", "101114.075000", "101115.077500", "101116.082500", "101117.085000", "101118.090000", "101119.095000", "101120.097500", "101121.102500", "101122.105000", "101123.110000", "101124.115000", "101125.117500", "101126.122500", "101127.125000", "101128.130000", "101129.135000", "101130.137500", "101131.142500", "101132.147500", "101133.150000", "101134.155000", "101135.157500", "101136.162500", "101137.167500", "101138.170000", "101139.175000", "101140.177500", "101141.182500", "101142.187500", "101143.190000", "101144.195000", "101145.197500", "101146.202500", "101147.207500", "101148.210000", "101149.215000", "101150.217500", "101151.222500", "101152.227500", "101153.230000", "101154.235000", "101155.237500", "101156.242500", "101157.247500", "101158.250000", "101159.255000", "101200.260000", "101201.262500", "101202.267500", "101203.270000", "101204.275000", "101205.280000", "101206.282500", "101207.287500", "101208.290000", "101209.295000", "101210.300000", "101211.302500", "101212.307500", "101213.310000", "101214.315000", "101215.320000", "101216.322500", "101217.327500", "101218.330000", "101219.335000", "101220.340000", "101221.342500", "101222.347500", "101223.350000", "101224.355000", "101225.360000", "101226.362500", "101227.367500", "101228.370000", "101229.375000", "101230.380000", "101231.382500", "101232.387500", "101233.392500", "101234.395000", "101235.400000", "101236.402500", "101237.407500", "101238.412500", "101239.415000", "101240.420000", "101241.422500", "101242.427500", "101243.432500", "101244.435000", "101245.440000", "101246.442500", "101247.447500", "101248.452500", "101249.455000", "101250.460000", "101251.462500", "101252.467500", "101253.472500", "101254.475000", "101255.480000", "101256.482500", "101257.487500", "101258.492500", "101259.495000", "101300.500000", "101301.502500", "101302.507500", "101303.512500", "101304.515000", "101305.520000", "101306.525000", "101307.527500"],
      "ContentTime": ["100814.562000", "100814.562000", "100814.562000", "100814.562000", "100814.562000", "100814.562000", "100814.578000", "100814.578000", "100814.578000", "100814.578000", "100814.578000", "100814.578000", "100814.578000", "100814.593000", "100814.593000", "100814.593000", "100814.593000", "100814.593000", "100814.593000", "100814.609000", "100814.609000", "100814.609000", "100814.609000", "100814.609000", "100814.609000", "100814.609000", "100814.625000", "100814.625000", "100814.625000", "100814.625000", "100814.625000", "100814.625000", "100814.625000", "100814.625000", "100814.640000", "100814.640000", "100834.515000", "100834.515000", "100834.515000", "100834.515000", "100834.531000", "100834.531000", "100834.531000", "100834.531000", "100834.531000", "100834.546000", "100834.546000", "100834.546000", "100834.546000", "100834.546000", "100834.546000", "100834.562000", "100834.562000", "100834.562000", "100834.562000", "100834.562000", "100854.515000", "100854.515000", "100854.515000", "100854.515000", "100854.531000", "100854.531000", "100854.531000", "100854.531000", "100854.531000", "100854.531000", "100854.531000", "100854.546000", "100854.546000", "100854.546000", "100854.546000", "100854.546000", "100854.546000", "100854.546000", "100854.546000", "100854.562000", "100914.515000", "100914.515000", "100914.515000", "100914.531000", "100914.531000", "100914.531000", "100914.531000", "100914.531000", "100914.531000", "100914.531000", "100914.546000", "100914.546000", "100914.546000", "100914.546000", "100914.546000", "100914.546000", "100914.546000", "100914.546000", "100914.562000", "100914.562000", "100934.515000", "100934.515000", "100934.515000", "100934.531000", "100934.531000", "100934.531000", "100934.531000", "100934.531000", "100934.531000", "100934.531000", "100934.546000", "100934.546000", "100934.546000", "100934.546000", "100934.546000", "100934.546000", "100934.546000", "100934.562000", "100934.562000", "100934.562000", "100954.515000", "100954.515000", "100954.515000", "100954.515000", "100954.531000", "100954.531000", "100954.531000", "100954.531000", "100954.531000", "100954.531000", "100954.531000", "100954.546000", "100954.546000", "100954.546000", "100954.546000", "100954.546000", "100954.546000", "100954.546000", "100954.562000", "100954.562000", "101014.515000", "101014.515000", "101014.515000", "101014.515000", "101014.531000", "101014.531000", "101014.531000", "101014.531000", "101014.531000", "101014.531000", "101014.531000", "101014.546000", "101014.546000", "101014.546000", "101014.546000", "101014.546000", "101014.562000", "101014.562000", "101014.562000", "101014.562000", "101034.515000", "101034.515000", "101034.515000", "101034.515000", "101034.531000", "101034.531000", "101034.531000", "101034.531000", "101034.531000", "101034.531000", "101034.531000", "101034.546000", "101034.546000", "101034.546000", "101034.546000", "101034.546000", "101034.546000", "101034.546000", "101034.546000", "101034.562000", "101054.515000", "101054.515000", "101054.515000", "101054.515000", "101054.531000", "101054.531000", "101054.531000", "101054.531000", "101054.531000", "101054.531000", "101054.531000", "101054.546000", "101054.546000", "101054.546000", "101054.546000", "101054.546000", "101054.546000", "101054.546000", "101054.562000", "101054.562000", "101114.515000", "101114.515000", "101114.515000", "101114.515000", "101114.531000", "101114.531000", "101114.531000", "101114.531000", "101114.531000", "101114.531000", "101114.531000", "101114.546000", "101114.546000", "101114.546000", "101114.546000", "101114.562000", "101114.562000", "101114.562000", "101114.562000", "101114.562000", "101134.515000", "101134.515000", "101134.515000", "101134.515000", "101134.531000", "101134.531000", "101134.531000", "101134.531000", "101134.531000", "101134.546000", "101134.546000", "101134.546000", "101134.546000", "101134.546000", "101134.546000", "101134.562000", "101134.562000", "101134.562000", "101134.562000", "101134.562000", "101154.515000", "101154.515000", "101154.531000", "101154.531000", "101154.531000", "101154.531000", "101154.531000", "101154.531000", "101154.546000", "101154.546000", "101154.546000", "101154.546000", "101154.546000", "101154.546000", "101154.546000", "101154.562000", "101154.562000", "101154.562000", "101154.562000", "101154.562000", "101214.515000", "101214.515000", "101214.515000", "101214.515000", "101214.531000", "101214.531000", "101214.531000", "101214.531000", "101214.531000", "101214.546000", "101214.546000", "101214.546000", "101214.546000", "101214.546000", "101214.546000", "101214.546000", "101214.562000", "101214.562000", "101214.562000", "101214.562000", "101234.515000", "101234.515000", "101234.515000", "101234.515000", "101234.531000", "101234.531000", "101234.531000", "101234.531000", "101234.531000", "101234.531000", "101234.531000", "101234.546000", "101234.546000", "101234.546000", "101234.546000", "101234.546000", "101234.562000", "101234.562000", "101234.562000", "101234.562000", "101254.515000", "101254.515000", "101254.531000", "101254.531000", "101254.531000", "101254.531000", "101254.531000", "101254.531000", "101254.546000", "101254.546000", "101254.546000", "101254.546000", "101254.546000", "101254.546000", "101254.546000", "101254.562000", "101254.562000", "101254.562000", "101254.562000", "101254.562000", "101312.812000", "101312.812000", "101312.828000", "101312.828000", "101312.828000", "101312.828000", "101312.828000", "101312.828000", "101312.843000", "101312.843000", "101312.843000", "101312.843000", "101312.843000", "101312.843000"],
      "InstanceCreationTime": ["100814.562000", "100814.562000", "100814.562000", "100814.562000", "100814.562000", "100814.562000", "100814.578000", "100814.578000", "100814.578000", "100814.578000", "100814.578000", "100814.578000", "100814.578000", "100814.593000", "100814.593000", "100814.593000", "100814.593000", "100814.593000", "100814.593000", "100814.609000", "100814.609000", "100814.609000", "100814.609000", "100814.609000", "100814.609000", "100814.609000", "100814.625000", "100814.625000", "100814.625000", "100814.625000", "100814.625000", "100814.625000", "100814.625000", "100814.625000", "100814.640000", "100814.640000", "100834.515000", "100834.515000", "100834.515000", "100834.515000", "100834.531000", "100834.531000", "100834.531000", "100834.531000", "100834.531000", "100834.546000", "100834.546000", "100834.546000", "100834.546000", "100834.546000", "100834.546000", "100834.562000", "100834.562000", "100834.562000", "100834.562000", "100834.562000", "100854.515000", "100854.515000", "100854.515000", "100854.515000", "100854.531000", "100854.531000", "100854.531000", "100854.531000", "100854.531000", "100854.531000", "100854.531000", "100854.546000", "100854.546000", "100854.546000", "100854.546000", "100854.546000", "100854.546000", "100854.546000", "100854.546000", "100854.562000", "100914.515000", "100914.515000", "100914.515000", "100914.531000", "100914.531000", "100914.531000", "100914.531000", "100914.531000", "100914.531000", "100914.531000", "100914.546000", "100914.546000", "100914.546000", "100914.546000", "100914.546000", "100914.546000", "100914.546000", "100914.546000", "100914.562000", "100914.562000", "100934.515000", "100934.515000", "100934.515000", "100934.531000", "100934.531000", "100934.531000", "100934.531000", "100934.531000", "100934.531000", "100934.531000", "100934.546000", "100934.546000", "100934.546000", "100934.546000", "100934.546000", "100934.546000", "100934.546000", "100934.562000", "100934.562000", "100934.562000", "100954.515000", "100954.515000", "100954.515000", "100954.515000", "100954.531000", "100954.531000", "100954.531000", "100954.531000", "100954.531000", "100954.531000", "100954.531000", "100954.546000", "100954.546000", "100954.546000", "100954.546000", "100954.546000", "100954.546000", "100954.546000", "100954.562000", "100954.562000", "101014.515000", "101014.515000", "101014.515000", "101014.515000", "101014.531000", "101014.531000", "101014.531000", "101014.531000", "101014.531000", "101014.531000", "101014.531000", "101014.546000", "101014.546000", "101014.546000", "101014.546000", "101014.546000", "101014.562000", "101014.562000", "101014.562000", "101014.562000", "101034.515000", "101034.515000", "101034.515000", "101034.515000", "101034.531000", "101034.531000", "101034.531000", "101034.531000", "101034.531000", "101034.531000", "101034.531000", "101034.546000", "101034.546000", "101034.546000", "101034.546000", "101034.546000", "101034.546000", "101034.546000", "101034.546000", "101034.562000", "101054.515000", "101054.515000", "101054.515000", "101054.515000", "101054.531000", "101054.531000", "101054.531000", "101054.531000", "101054.531000", "101054.531000", "101054.531000", "101054.546000", "101054.546000", "101054.546000", "101054.546000", "101054.546000", "101054.546000", "101054.546000", "101054.562000", "101054.562000", "101114.515000", "101114.515000", "101114.515000", "101114.515000", "101114.531000", "101114.531000", "101114.531000", "101114.531000", "101114.531000", "101114.531000", "101114.531000", "101114.546000", "101114.546000", "101114.546000", "101114.546000", "101114.562000", "101114.562000", "101114.562000", "101114.562000", "101114.562000", "101134.515000", "101134.515000", "101134.515000", "101134.515000", "101134.531000", "101134.531000", "101134.531000", "101134.531000", "101134.531000", "101134.546000", "101134.546000", "101134.546000", "101134.546000", "101134.546000", "101134.546000", "101134.562000", "101134.562000", "101134.562000", "101134.562000", "101134.562000", "101154.515000", "101154.515000", "101154.531000", "101154.531000", "101154.531000", "101154.531000", "101154.531000", "101154.531000", "101154.546000", "101154.546000", "101154.546000", "101154.546000", "101154.546000", "101154.546000", "101154.546000", "101154.562000", "101154.562000", "101154.562000", "101154.562000", "101154.562000", "101214.515000", "101214.515000", "101214.515000", "101214.515000", "101214.531000", "101214.531000", "101214.531000", "101214.531000", "101214.531000", "101214.546000", "101214.546000", "101214.546000", "101214.546000", "101214.546000", "101214.546000", "101214.546000", "101214.562000", "101214.562000", "101214.562000", "101214.562000", "101234.515000", "101234.515000", "101234.515000", "101234.515000", "101234.531000", "101234.531000", "101234.531000", "101234.531000", "101234.531000", "101234.531000", "101234.531000", "101234.546000", "101234.546000", "101234.546000", "101234.546000", "101234.546000", "101234.562000", "101234.562000", "101234.562000", "101234.562000", "101254.515000", "101254.515000", "101254.531000", "101254.531000", "101254.531000", "101254.531000", "101254.531000", "101254.531000", "101254.546000", "101254.546000", "101254.546000", "101254.546000", "101254.546000", "101254.546000", "101254.546000", "101254.562000", "101254.562000", "101254.562000", "101254.562000", "101254.562000", "101312.812000", "101312.812000", "101312.828000", "101312.828000", "101312.828000", "101312.828000", "101312.828000", "101312.828000", "101312.843000", "101312.843000", "101312.843000", "101312.843000", "101312.843000", "101312.843000"],
      "InstanceNumber": [1, 2, 3, 4, 5, 6, 7, 8, 9, 10, 11, 12, 13, 14, 15, 16, 17, 18, 19, 20, 21, 22, 23, 24, 25, 26, 27, 28, 29, 30, 31, 32, 33, 34, 35, 36, 37, 38, 39, 40, 41, 42, 43, 44, 45, 46, 47, 48, 49, 50, 51, 52, 53, 54, 55, 56, 57, 58, 59, 60, 61, 62, 63, 64, 65, 66, 67, 68, 69, 70, 71, 72, 73, 74, 75, 76, 77, 78, 79, 80, 81, 82, 83, 84, 85, 86, 87, 88, 89, 90, 91, 92, 93, 94, 95, 96, 97, 98, 99, 100, 101, 102, 103, 104, 105, 106, 107, 108, 109, 110, 111, 112, 113, 114, 115, 116, 117, 118, 119, 120, 121, 122, 123, 124, 125, 126, 127, 128, 129, 130, 131, 132, 133, 134, 135, 136, 137, 138, 139, 140, 141, 142, 143, 144, 145, 146, 147, 148, 149, 150, 151, 152, 153, 154, 155, 156, 157, 158, 159, 160, 161, 162, 163, 164, 165, 166, 167, 168, 169, 170, 171, 172, 173, 174, 175, 176, 177, 178, 179, 180, 181, 182, 183, 184, 185, 186, 187, 188, 189, 190, 191, 192, 193, 194, 195, 196, 197, 198, 199, 200, 201, 202, 203, 204, 205, 206, 207, 208, 209, 210, 211, 212, 213, 214, 215, 216, 217, 218, 219, 220, 221, 222, 223, 224, 225, 226, 227, 228, 229, 230, 231, 232, 233, 234, 235, 236, 237, 238, 239, 240, 241, 242, 243, 244, 245, 246, 247, 248, 249, 250, 251, 252, 253, 254, 255, 256, 257, 258, 259, 260, 261, 262, 263, 264, 265, 266, 267, 268, 269, 270, 271, 272, 273, 274, 275, 276, 277, 278, 279, 280, 281, 282, 283, 284, 285, 286, 287, 288, 289, 290, 291, 292, 293, 294, 295, 296, 297, 298, 299, 300, 301, 302, 303, 304, 305, 306, 307, 308, 309, 310, 311, 312, 313, 314, 315, 316, 317, 318, 319, 320, 321, 322, 323, 324, 325, 326, 327, 328, 329, 330],
      "LargestImagePixelValue": [2861, 2882, 2854, 2856, 2820, 2805, 2837, 2845, 2917, 2855, 2813, 2901, 2883, 2859, 2890, 2894, 2854, 2865, 2926, 2933, 2882, 2890, 2910, 2871, 2890, 2896, 2863, 2856, 2878, 2882, 2900, 2877, 2881, 2894, 2936, 2829, 2899, 2874, 2905, 2868, 2895, 2849, 2905, 2947, 2926, 2889, 2903, 2891, 2885, 2900, 2881, 2926, 2924, 2958, 2864, 2914, 2907, 2935, 2939, 2898, 2955, 2940, 2876, 2966, 2924, 2873, 2891, 2917, 2898, 2921, 2966, 2934, 2990, 3015, 2980, 2926, 2918, 2905, 2891, 2847, 2887, 2927, 2952, 2957, 2958, 2884, 2952, 2928, 2948, 2965, 2929, 2969, 2994, 2939, 2960, 2893, 2884, 2945, 2904, 2937, 2916, 2919, 2942, 2942, 2979, 2911, 2948, 2937, 2919, 2929, 2916, 2914, 2895, 2922, 2898, 2895, 2933, 2870, 2949, 2967, 2880, 2906, 2974, 2919, 2954, 2914, 2879, 2990, 2905, 2898, 2892, 2900, 2924, 2923, 2879, 2853, 2928, 2926, 2902, 2897, 2851, 2928, 2933, 2929, 2902, 2904, 2894, 2838, 2969, 2870, 2897, 2905, 2883, 2876, 2854, 2859, 2931, 2940, 2909, 2953, 2873, 2936, 2915, 2914, 2940, 2947, 2881, 2959, 2934, 2944, 2932, 2921, 2956, 2920, 2926, 2918, 2922, 2907, 2927, 2979, 2962, 2941, 2939, 2964, 2962, 2937, 2921, 2926, 3001, 2942, 2930, 2986, 3033, 2893, 2970, 2926, 2930, 2948, 2943, 2931, 2909, 2840, 2840, 2904, 2909, 2844, 2891, 2905, 2903, 2982, 2848, 2933, 2919, 2853, 2928, 2907, 2919, 2991, 2889, 2882, 2886, 2834, 2878, 2905, 2889, 2897, 2869, 2859, 2889, 2828, 2828, 2823, 2882, 2860, 2860, 2840, 2946, 2929, 2926, 2889, 2840, 2834, 2890, 2857, 2842, 2831, 2821, 2891, 2944, 2850, 2866, 2845, 2931, 2965, 2899, 2904, 2956, 2920, 2916, 2911, 2912, 2867, 2962, 2999, 2921, 2953, 2939, 2896, 2987, 2907, 2897, 2948, 2861, 2938, 2945, 2890, 2968, 2952, 2850, 2902, 2916, 2886, 2977, 2937, 2950, 2969, 2966, 2927, 2998, 3003, 2928, 3004, 2939, 2957, 2959, 2944, 2919, 3038, 2979, 3008, 2943, 2961, 3016, 2938, 2988, 2978, 2984, 2926, 2981, 3019, 2980, 2987, 2988, 3011, 3007, 2991, 3002, 2969, 3035, 2979, 2987, 2962, 2928, 2984, 2991, 2972, 3003, 2970, 2975, 2970],
      "WindowCenter": [438.0, 438.0, 436.0, 437.0, 436.0, 435.0, 435.0, 435.0, 435.0, 435.0, 435.0, 435.0, 436.0, 436.0, 437.0, 437.0, 437.0, 437.0, 438.0, 438.0, 437.0, 437.0, 438.0, 437.0, 437.0, 437.0, 436.0, 436.0, 436.0, 435.0, 437.0, 437.0, 437.0, 437.0, 437.0, 435.0, 435.0, 435.0, 436.0, 435.0, 435.0, 435.0, 436.0, 436.0, 436.0, 436.0, 436.0, 437.0, 437.0, 437.0, 436.0, 436.0, 436.0, 436.0, 435.0, 436.0, 436.0, 437.0, 437.0, 436.0, 438.0, 438.0, 438.0, 439.0, 439.0, 438.0, 438.0, 437.0, 436.0, 436.0, 437.0, 437.0, 438.0, 438.0, 438.0, 438.0, 438.0, 439.0, 439.0, 438.0, 438.0, 438.0, 438.0, 438.0, 438.0, 437.0, 438.0, 437.0, 437.0, 437.0, 437.0, 437.0, 437.0, 437.0, 437.0, 437.0, 438.0, 438.0, 437.0, 437.0, 436.0, 436.0, 436.0, 436.0, 436.0, 436.0, 436.0, 436.0, 436.0, 436.0, 436.0, 436.0, 436.0, 436.0, 436.0, 435.0, 436.0, 435.0, 435.0, 436.0, 435.0, 436.0, 437.0, 437.0, 438.0, 437.0, 437.0, 438.0, 438.0, 439.0, 439.0, 438.0, 438.0, 437.0, 436.0, 436.0, 437.0, 437.0, 437.0, 436.0, 435.0, 435.0, 436.0, 436.0, 436.0, 436.0, 436.0, 435.0, 436.0, 436.0, 437.0, 437.0, 437.0, 436.0, 436.0, 437.0, 437.0, 438.0, 438.0, 439.0, 438.0, 439.0, 439.0, 440.0, 440.0, 440.0, 439.0, 439.0, 438.0, 438.0, 438.0, 438.0, 439.0, 439.0, 438.0, 437.0, 436.0, 435.0, 434.0, 436.0, 436.0, 436.0, 436.0, 437.0, 436.0, 436.0, 435.0, 435.0, 437.0, 437.0, 438.0, 438.0, 438.0, 437.0, 437.0, 437.0, 437.0, 437.0, 438.0, 438.0, 438.0, 437.0, 437.0, 437.0, 437.0, 436.0, 436.0, 436.0, 436.0, 437.0, 437.0, 439.0, 439.0, 438.0, 438.0, 437.0, 435.0, 436.0, 435.0, 436.0, 437.0, 437.0, 437.0, 437.0, 437.0, 437.0, 437.0, 437.0, 438.0, 437.0, 437.0, 437.0, 437.0, 436.0, 436.0, 436.0, 437.0, 437.0, 438.0, 438.0, 438.0, 438.0, 439.0, 438.0, 437.0, 436.0, 435.0, 436.0, 436.0, 436.0, 437.0, 437.0, 438.0, 438.0, 438.0, 437.0, 437.0, 437.0, 437.0, 437.0, 437.0, 437.0, 438.0, 438.0, 438.0, 438.0, 438.0, 437.0, 438.0, 437.0, 437.0, 437.0, 437.0, 437.0, 437.0, 437.0, 439.0, 439.0, 439.0, 439.0, 439.0, 437.0, 438.0, 437.0, 437.0, 437.0, 437.0, 436.0, 437.0, 437.0, 436.0, 438.0, 436.0, 437.0, 436.0, 436.0, 435.0, 436.0, 437.0, 438.0, 438.0, 438.0, 438.0, 437.0, 437.0, 437.0, 436.0, 436.0, 436.0, 437.0, 437.0, 437.0, 438.0, 437.0, 437.0, 436.0, 435.0, 435.0, 437.0, 437.0, 438.0, 438.0, 437.0, 438.0, 438.0, 438.0, 439.0, 439.0, 439.0, 439.0],
