{
  "AcquisitionMatrixPE": 104,
  "AcquisitionNumber": 1,
  "AcquisitionTime": "09:11:43.075000",
  "BandwidthPerPixelPhaseEncode": 43.054,
  "BaseResolution": 104,
  "CoilString": "C:E1_2",
  "ConversionSoftware": "dcm2niix",
  "ConversionSoftwareVersion": "v1.0.20191031",
  "DerivedVendorReportedEchoSpacing": 0.000669999,
  "DeviceSerialNumber": "18932",
  "DwellTime": 2.8e-06,
  "EchoTime": 0.02,
  "EffectiveEchoSpacing": 0.000223333,
  "FlipAngle": 30,
  "ImageComments": "Unaliased_MB2_PE2",
  "ImageOrientationPatientDICOM": [1, -1e-16, 0, 1e-16, 0.979925, -0.199368],
  "ImageType": [
    "ORIGINAL",
    "PRIMARY",
    "M",
    "MB",
    "ND",
    "MOSAIC"
],
  "ImagingFrequency": 297.229,
  "InPlanePhaseEncodingDirectionDICOM": "COL",
  "InstitutionAddress": "Richmond_Street_North_1151_London_409EF2_Ontario_CA_N6A_5B7",
  "InstitutionName": "Robarts_Reserch_Institute",
  "InstitutionalDepartmentName": "Department",
  "MRAcquisitionType": "2D",
  "MagneticFieldStrength": 6.98,
  "Manufacturer": "Siemens",
  "ManufacturersModelName": "Investigational_Device_7T",
  "Modality": "MR",
  "MultibandAccelerationFactor": 2,
  "ParallelReductionFactorInPlane": 3,
  "PartialFourier": 0.875,
  "PatientPosition": "HFS",
  "PercentPhaseFOV": 100,
  "PhaseEncodingDirection": "j-",
  "PhaseEncodingSteps": 91,
  "PhaseResolution": 1,
  "PixelBandwidth": 1717,
  "ProcedureStepDescription": "Diedrichsen_SeqRep4",
  "ProtocolName": "mbep2d_bold_mb2_p3_AP_2iso",
  "PulseSequenceDetails": "%CustomerSeq%_cmrr_mbep2d_bold",
  "ReceiveCoilName": "CFMM_8Tx32Rx",
  "ReconMatrixPE": 104,
  "RefLinesPE": 36,
  "RepetitionTime": 1,
  "ScanOptions": "PFP_FS",
  "ScanningSequence": "EP",
  "SequenceName": "epfid2d1_104",
  "SequenceVariant": "SK_SS",
  "SeriesDescription": "mbep2d_bold_mb2_p3_AP_2iso",
  "SeriesNumber": 13,
  "ShimSetting": [5, 2115, 64, 1356, 38, -3, 144, -167],
  "SliceThickness": 2,
  "SliceTiming": [0, 0.2275, 0.455, 0.685, 0.9125, 0.1375, 0.365, 0.5925, 0.82, 0.045, 0.2725, 0.5025, 0.73, 0.9575, 0.1825, 0.41, 0.6375, 0.8675, 0.09, 0.32, 0.5475, 0.775, 0, 0.2275, 0.455, 0.685, 0.9125, 0.1375, 0.365, 0.5925, 0.82, 0.045, 0.2725, 0.5025, 0.73, 0.9575, 0.1825, 0.41, 0.6375, 0.8675, 0.09, 0.32, 0.5475, 0.775],
  "SoftwareVersions": "syngo_MR_B17",
  "SpacingBetweenSlices": 2,
  "StationName": "MASTER",
  "TaskName": "dsp",
  "TotalReadoutTime": 0.0230033,
  "TxRefAmp": 120,
  "dcmmeta_affine": [
    [-2.0, 2.000000033724767e-16, -3.987358960979601e-17, 105.4527816772461],
    [2.000000033724767e-16, 1.9598493576049805, -0.3987358808517456, -107.36229705810547],
    [0.0, 0.3987358808517456, 1.9598493576049805, -42.90914535522461],
    [0.0, 0.0, 0.0, 1.0]
],
  "dcmmeta_reorient_transform": [
    [0.0, -1.0, 0.0, 103.0],
    [1.0, 0.0, 0.0, 0.0],
    [0.0, 0.0, 1.0, 0.0],
    [0.0, 0.0, 0.0, 1.0]
],
  "dcmmeta_shape": [104, 104, 44, 330],
  "dcmmeta_slice_dim": 2,
  "dcmmeta_version": 0.6,
  "global": {
    "const": {
      "AcquisitionMatrix": [104, 0, 0, 104],
      "AngioFlag": "N",
      "BitsAllocated": 16,
      "BitsStored": 12,
      "Columns": 728,
      "EchoNumbers": 1,
      "EchoTime": 20.0,
      "EchoTrainLength": 1,
      "FlipAngle": 30.0,
      "HighBit": 11,
      "ImageOrientationPatient": [1.0, -1e-16, 0.0, 1e-16, 0.97992470268924, -0.1993679439113],
      "ImagePositionPatient": [-729.45278453827, -705.97520707538, 122.56624713957],
      "ImageType": [
        "ORIGINAL",
        "PRIMARY",
        "M",
        "MB",
        "ND",
        "MOSAIC"
],
      "ImagedNucleus": "1H",
      "ImagingFrequency": 297.228728,
      "InPlanePhaseEncodingDirection": "COL",
      "MRAcquisitionType": "2D",
      "MagneticFieldStrength": 6.98,
      "Manufacturer": "SIEMENS",
      "ManufacturerModelName": "Investigational_Device_7T",
      "Modality": "MR",
      "NumberOfAverages": 1.0,
      "NumberOfPhaseEncodingSteps": 91,
      "PercentPhaseFieldOfView": 100.0,
      "PercentSampling": 100.0,
      "PerformedProcedureStepStartTime": "084204.984000",
      "PhotometricInterpretation": "MONOCHROME2",
      "PixelBandwidth": 1717.0,
      "PixelRepresentation": 0,
      "PixelSpacing": [2.0, 2.0],
      "ProtocolName": "mbep2d_bold_mb2_p3_AP 2iso",
      "RepetitionTime": 1000.0,
      "Rows": 728,
      "SAR": 0.0,
      "SamplesPerPixel": 1,
      "ScanOptions": [
        "PFP",
        "FS"
],
      "ScanningSequence": "EP",
      "SequenceName": "epfid2d1_104",
      "SequenceVariant": [
        "SK",
        "SS"
],
      "SeriesDescription": "mbep2d_bold_mb2_p3_AP 2iso",
      "SeriesNumber": 13,
      "SeriesTime": "091154.546000",
      "SliceLocation": -20.643132198969,
      "SliceThickness": 2.0,
      "SmallestImagePixelValue": 0,
      "SoftwareVersions": "syngo MR B17",
      "SpacingBetweenSlices": 2.0000000120211,
      "SpecificCharacterSet": "ISO_IR 100",
      "StudyID": "1",
      "StudyTime": "084204.531000",
      "TransmitCoilName": "CFMM_8Tx32Rx",
      "VariableFlipAngleFlag": "N",
      "WindowCenterWidthExplanation": "Algo1",
      "dBdt": 0.0},
    "slices": {}
  },
  "time": {
    "samples": {
      "AcquisitionNumber": [1, 2, 3, 4, 5, 6, 7, 8, 9, 10, 11, 12, 13, 14, 15, 16, 17, 18, 19, 20, 21, 22, 23, 24, 25, 26, 27, 28, 29, 30, 31, 32, 33, 34, 35, 36, 37, 38, 39, 40, 41, 42, 43, 44, 45, 46, 47, 48, 49, 50, 51, 52, 53, 54, 55, 56, 57, 58, 59, 60, 61, 62, 63, 64, 65, 66, 67, 68, 69, 70, 71, 72, 73, 74, 75, 76, 77, 78, 79, 80, 81, 82, 83, 84, 85, 86, 87, 88, 89, 90, 91, 92, 93, 94, 95, 96, 97, 98, 99, 100, 101, 102, 103, 104, 105, 106, 107, 108, 109, 110, 111, 112, 113, 114, 115, 116, 117, 118, 119, 120, 121, 122, 123, 124, 125, 126, 127, 128, 129, 130, 131, 132, 133, 134, 135, 136, 137, 138, 139, 140, 141, 142, 143, 144, 145, 146, 147, 148, 149, 150, 151, 152, 153, 154, 155, 156, 157, 158, 159, 160, 161, 162, 163, 164, 165, 166, 167, 168, 169, 170, 171, 172, 173, 174, 175, 176, 177, 178, 179, 180, 181, 182, 183, 184, 185, 186, 187, 188, 189, 190, 191, 192, 193, 194, 195, 196, 197, 198, 199, 200, 201, 202, 203, 204, 205, 206, 207, 208, 209, 210, 211, 212, 213, 214, 215, 216, 217, 218, 219, 220, 221, 222, 223, 224, 225, 226, 227, 228, 229, 230, 231, 232, 233, 234, 235, 236, 237, 238, 239, 240, 241, 242, 243, 244, 245, 246, 247, 248, 249, 250, 251, 252, 253, 254, 255, 256, 257, 258, 259, 260, 261, 262, 263, 264, 265, 266, 267, 268, 269, 270, 271, 272, 273, 274, 275, 276, 277, 278, 279, 280, 281, 282, 283, 284, 285, 286, 287, 288, 289, 290, 291, 292, 293, 294, 295, 296, 297, 298, 299, 300, 301, 302, 303, 304, 305, 306, 307, 308, 309, 310, 311, 312, 313, 314, 315, 316, 317, 318, 319, 320, 321, 322, 323, 324, 325, 326, 327, 328, 329, 330],
      "AcquisitionTime": ["091143.075000", "091144.080000", "091145.082500", "091146.087500", "091147.090000", "091148.095000", "091149.100000", "091150.102500", "091151.107500", "091152.110000", "091153.115000", "091154.120000", "091155.122500", "091156.127500", "091157.130000", "091158.135000", "091159.140000", "091200.142500", "091201.147500", "091202.152500", "091203.155000", "091204.160000", "091205.162500", "091206.167500", "091207.172500", "091208.175000", "091209.180000", "091210.182500", "091211.187500", "091212.192500", "091213.195000", "091214.200000", "091215.202500", "091216.207500", "091217.212500", "091218.215000", "091219.220000", "091220.222500", "091221.227500", "091222.232500", "091223.235000", "091224.240000", "091225.242500", "091226.247500", "091227.252500", "091228.255000", "091229.260000", "091230.265000", "091231.267500", "091232.272500", "091233.275000", "091234.280000", "091235.285000", "091236.287500", "091237.292500", "091238.295000", "091239.300000", "091240.305000", "091241.307500", "091242.312500", "091243.315000", "091244.320000", "091245.325000", "091246.327500", "091247.332500", "091248.335000", "091249.340000", "091250.345000", "091251.347500", "091252.352500", "091253.355000", "091254.360000", "091255.365000", "091256.367500", "091257.372500", "091258.375000", "091259.380000", "091300.385000", "091301.387500", "091302.392500", "091303.397500", "091304.400000", "091305.405000", "091306.407500", "091307.412500", "091308.417500", "091309.420000", "091310.425000", "091311.427500", "091312.432500", "091313.437500", "091314.440000", "091315.445000", "091316.447500", "091317.452500", "091318.457500", "091319.460000", "091320.465000", "091321.467500", "091322.472500", "091323.477500", "091324.480000", "091325.485000", "091326.487500", "091327.492500", "091328.497500", "091329.500000", "091330.505000", "091331.507500", "091332.512500", "091333.517500", "091334.520000", "091335.525000", "091336.530000", "091337.532500", "091338.537500", "091339.540000", "091340.545000", "091341.550000", "091342.552500", "091343.557500", "091344.560000", "091345.565000", "091346.570000", "091347.572500", "091348.577500", "091349.580000", "091350.585000", "091351.590000", "091352.592500", "091353.597500", "091354.600000", "091355.605000", "091356.610000", "091357.612500", "091358.617500", "091359.620000", "091400.625000", "091401.630000", "091402.632500", "091403.637500", "091404.642500", "091405.645000", "091406.650000", "091407.652500", "091408.657500", "091409.662500", "091410.665000", "091411.670000", "091412.672500", "091413.677500", "091414.682500", "091415.685000", "091416.690000", "091417.692500", "091418.697500", "091419.702500", "091420.705000", "091421.710000", "091422.712500", "091423.717500", "091424.722500", "091425.725000", "091426.730000", "091427.732500", "091428.737500", "091429.742500", "091430.745000", "091431.750000", "091432.752500", "091433.757500", "091434.762500", "091435.765000", "091436.770000", "091437.775000", "091438.777500", "091439.782500", "091440.785000", "091441.790000", "091442.795000", "091443.797500", "091444.802500", "091445.805000", "091446.810000", "091447.815000", "091448.817500", "091449.822500", "091450.825000", "091451.830000", "091452.835000", "091453.837500", "091454.842500", "091455.845000", "091456.850000", "091457.855000", "091458.857500", "091459.862500", "091500.865000", "091501.870000", "091502.875000", "091503.877500", "091504.882500", "091505.885000", "091506.890000", "091507.895000", "091508.897500", "091509.902500", "091510.907500", "091511.910000", "091512.915000", "091513.917500", "091514.922500", "091515.927500", "091516.930000", "091517.935000", "091518.937500", "091519.942500", "091520.947500", "091521.950000", "091522.955000", "091523.957500", "091524.962500", "091525.967500", "091526.970000", "091527.975000", "091528.977500", "091529.982500", "091530.987500", "091531.990000", "091532.995000", "091533.997500", "091535.002500", "091536.007500", "091537.010000", "091538.015000", "091539.020000", "091540.022500", "091541.027500", "091542.030000", "091543.035000", "091544.040000", "091545.042500", "091546.047500", "091547.050000", "091548.055000", "091549.060000", "091550.062500", "091551.067500", "091552.070000", "091553.075000", "091554.080000", "091555.082500", "091556.087500", "091557.090000", "091558.095000", "091559.100000", "091600.102500", "091601.107500", "091602.110000", "091603.115000", "091604.120000", "091605.122500", "091606.127500", "091607.130000", "091608.135000", "091609.140000", "091610.142500", "091611.147500", "091612.152500", "091613.155000", "091614.160000", "091615.162500", "091616.167500", "091617.172500", "091618.175000", "091619.180000", "091620.182500", "091621.187500", "091622.192500", "091623.195000", "091624.200000", "091625.202500", "091626.207500", "091627.212500", "091628.215000", "091629.220000", "091630.222500", "091631.227500", "091632.232500", "091633.235000", "091634.240000", "091635.242500", "091636.247500", "091637.252500", "091638.255000", "091639.260000", "091640.265000", "091641.267500", "091642.272500", "091643.275000", "091644.280000", "091645.285000", "091646.287500", "091647.292500", "091648.295000", "091649.300000", "091650.305000", "091651.307500", "091652.312500", "091653.315000", "091654.320000", "091655.325000", "091656.327500", "091657.332500", "091658.335000", "091659.340000", "091700.345000", "091701.347500", "091702.352500", "091703.355000", "091704.360000", "091705.365000", "091706.367500", "091707.372500", "091708.375000", "091709.380000", "091710.385000", "091711.387500", "091712.392500", "091713.397500"],
      "ContentTime": ["091154.546000", "091154.546000", "091154.562000", "091154.562000", "091154.562000", "091154.578000", "091154.578000", "091154.578000", "091154.578000", "091154.578000", "091154.578000", "091214.500000", "091214.500000", "091214.500000", "091214.515000", "091214.515000", "091214.515000", "091214.531000", "091214.531000", "091214.531000", "091214.531000", "091214.531000", "091214.531000", "091214.531000", "091214.546000", "091214.546000", "091214.546000", "091214.546000", "091214.546000", "091214.546000", "091214.562000", "091234.500000", "091234.500000", "091234.500000", "091234.515000", "091234.515000", "091234.515000", "091234.515000", "091234.515000", "091234.531000", "091234.531000", "091234.531000", "091234.531000", "091234.531000", "091234.531000", "091234.531000", "091234.546000", "091234.546000", "091234.546000", "091234.562000", "091234.562000", "091254.500000", "091254.500000", "091254.500000", "091254.500000", "091254.515000", "091254.515000", "091254.515000", "091254.515000", "091254.515000", "091254.515000", "091254.531000", "091254.531000", "091254.531000", "091254.531000", "091254.531000", "091254.531000", "091254.546000", "091254.546000", "091254.546000", "091254.546000", "091314.500000", "091314.515000", "091314.515000", "091314.515000", "091314.515000", "091314.531000", "091314.531000", "091314.531000", "091314.531000", "091314.531000", "091314.531000", "091314.546000", "091314.546000", "091314.546000", "091314.546000", "091314.546000", "091314.546000", "091314.546000", "091314.562000", "091314.562000", "091334.500000", "091334.500000", "091334.500000", "091334.515000", "091334.515000", "091334.515000", "091334.515000", "091334.515000", "091334.515000", "091334.515000", "091334.531000", "091334.531000", "091334.531000", "091334.531000", "091334.546000", "091334.546000", "091334.546000", "091334.546000", "091334.546000", "091334.546000", "091354.500000", "091354.500000", "091354.500000", "091354.515000", "091354.515000", "091354.515000", "091354.515000", "091354.515000", "091354.531000", "091354.531000", "091354.531000", "091354.531000", "091354.531000", "091354.546000", "091354.546000", "091354.546000", "091354.546000", "091354.546000", "091354.546000", "091354.562000", "091414.500000", "091414.500000", "091414.500000", "091414.515000", "091414.515000", "091414.515000", "091414.515000", "091414.515000", "091414.531000", "091414.531000", "091414.531000", "091414.531000", "091414.531000", "091414.531000", "091414.546000", "091414.546000", "091414.546000", "091414.546000", "091414.546000", "091414.546000", "091434.500000", "091434.500000", "091434.500000", "091434.515000", "091434.515000", "091434.515000", "091434.515000", "091434.531000", "091434.531000", "091434.531000", "091434.531000", "091434.531000", "091434.531000", "091434.546000", "091434.546000", "091434.546000", "091434.578000", "091434.578000", "091434.578000", "091434.593000", "091454.500000", "091454.500000", "091454.500000", "091454.515000", "091454.515000", "091454.515000", "091454.531000", "091454.531000", "091454.531000", "091454.531000", "091454.531000", "091454.531000", "091454.531000", "091454.546000", "091454.546000", "091454.562000", "091454.562000", "091454.562000", "091454.562000", "091454.562000", "091514.500000", "091514.500000", "091514.515000", "091514.515000", "091514.515000", "091514.531000", "091514.531000", "091514.531000", "091514.531000", "091514.546000", "091514.546000", "091514.562000", "091514.562000", "091514.562000", "091514.578000", "091514.578000", "091514.578000", "091514.578000", "091514.578000", "091514.578000", "091534.500000", "091534.500000", "091534.500000", "091534.515000", "091534.515000", "091534.515000", "091534.515000", "091534.515000", "091534.531000", "091534.531000", "091534.531000", "091534.531000", "091534.546000", "091534.546000", "091534.546000", "091534.546000", "091534.546000", "091534.546000", "091534.546000", "091534.562000", "091554.500000", "091554.500000", "091554.500000", "091554.515000", "091554.515000", "091554.515000", "091554.515000", "091554.515000", "091554.531000", "091554.531000", "091554.531000", "091554.531000", "091554.531000", "091554.531000", "091554.546000", "091554.546000", "091554.546000", "091554.562000", "091554.562000", "091554.562000", "091614.500000", "091614.500000", "091614.500000", "091614.515000", "091614.515000", "091614.515000", "091614.515000", "091614.515000", "091614.531000", "091614.531000", "091614.531000", "091614.531000", "091614.531000", "091614.531000", "091614.531000", "091614.546000", "091614.546000", "091614.546000", "091614.546000", "091614.546000", "091634.500000", "091634.500000", "091634.500000", "091634.515000", "091634.515000", "091634.515000", "091634.515000", "091634.531000", "091634.531000", "091634.531000", "091634.531000", "091634.531000", "091634.531000", "091634.531000", "091634.546000", "091634.546000", "091634.546000", "091634.546000", "091634.546000", "091634.546000", "091654.500000", "091654.500000", "091654.515000", "091654.515000", "091654.515000", "091654.531000", "091654.531000", "091654.531000", "091654.531000", "091654.531000", "091654.531000", "091654.546000", "091654.546000", "091654.546000", "091654.546000", "091654.546000", "091654.562000", "091654.562000", "091654.562000", "091654.562000", "091718.218000", "091718.218000", "091718.234000", "091718.234000", "091718.234000", "091718.234000", "091718.250000", "091718.250000", "091718.250000", "091718.250000", "091718.250000", "091718.250000", "091718.265000", "091718.265000", "091718.265000", "091718.265000", "091718.265000", "091718.265000", "091718.265000"],
      "InstanceCreationTime": ["091154.546000", "091154.546000", "091154.562000", "091154.562000", "091154.562000", "091154.578000", "091154.578000", "091154.578000", "091154.578000", "091154.578000", "091154.578000", "091214.500000", "091214.500000", "091214.500000", "091214.515000", "091214.515000", "091214.515000", "091214.531000", "091214.531000", "091214.531000", "091214.531000", "091214.531000", "091214.531000", "091214.531000", "091214.546000", "091214.546000", "091214.546000", "091214.546000", "091214.546000", "091214.546000", "091214.562000", "091234.500000", "091234.500000", "091234.500000", "091234.515000", "091234.515000", "091234.515000", "091234.515000", "091234.515000", "091234.531000", "091234.531000", "091234.531000", "091234.531000", "091234.531000", "091234.531000", "091234.531000", "091234.546000", "091234.546000", "091234.546000", "091234.562000", "091234.562000", "091254.500000", "091254.500000", "091254.500000", "091254.500000", "091254.515000", "091254.515000", "091254.515000", "091254.515000", "091254.515000", "091254.515000", "091254.531000", "091254.531000", "091254.531000", "091254.531000", "091254.531000", "091254.531000", "091254.546000", "091254.546000", "091254.546000", "091254.546000", "091314.500000", "091314.515000", "091314.515000", "091314.515000", "091314.515000", "091314.531000", "091314.531000", "091314.531000", "091314.531000", "091314.531000", "091314.531000", "091314.546000", "091314.546000", "091314.546000", "091314.546000", "091314.546000", "091314.546000", "091314.546000", "091314.562000", "091314.562000", "091334.500000", "091334.500000", "091334.500000", "091334.515000", "091334.515000", "091334.515000", "091334.515000", "091334.515000", "091334.515000", "091334.515000", "091334.531000", "091334.531000", "091334.531000", "091334.531000", "091334.546000", "091334.546000", "091334.546000", "091334.546000", "091334.546000", "091334.546000", "091354.500000", "091354.500000", "091354.500000", "091354.515000", "091354.515000", "091354.515000", "091354.515000", "091354.515000", "091354.531000", "091354.531000", "091354.531000", "091354.531000", "091354.531000", "091354.546000", "091354.546000", "091354.546000", "091354.546000", "091354.546000", "091354.546000", "091354.562000", "091414.500000", "091414.500000", "091414.500000", "091414.515000", "091414.515000", "091414.515000", "091414.515000", "091414.515000", "091414.531000", "091414.531000", "091414.531000", "091414.531000", "091414.531000", "091414.531000", "091414.546000", "091414.546000", "091414.546000", "091414.546000", "091414.546000", "091414.546000", "091434.500000", "091434.500000", "091434.500000", "091434.515000", "091434.515000", "091434.515000", "091434.515000", "091434.531000", "091434.531000", "091434.531000", "091434.531000", "091434.531000", "091434.531000", "091434.546000", "091434.546000", "091434.546000", "091434.578000", "091434.578000", "091434.578000", "091434.593000", "091454.500000", "091454.500000", "091454.500000", "091454.515000", "091454.515000", "091454.515000", "091454.531000", "091454.531000", "091454.531000", "091454.531000", "091454.531000", "091454.531000", "091454.531000", "091454.546000", "091454.546000", "091454.562000", "091454.562000", "091454.562000", "091454.562000", "091454.562000", "091514.500000", "091514.500000", "091514.515000", "091514.515000", "091514.515000", "091514.531000", "091514.531000", "091514.531000", "091514.531000", "091514.546000", "091514.546000", "091514.562000", "091514.562000", "091514.562000", "091514.578000", "091514.578000", "091514.578000", "091514.578000", "091514.578000", "091514.578000", "091534.500000", "091534.500000", "091534.500000", "091534.515000", "091534.515000", "091534.515000", "091534.515000", "091534.515000", "091534.531000", "091534.531000", "091534.531000", "091534.531000", "091534.546000", "091534.546000", "091534.546000", "091534.546000", "091534.546000", "091534.546000", "091534.546000", "091534.562000", "091554.500000", "091554.500000", "091554.500000", "091554.515000", "091554.515000", "091554.515000", "091554.515000", "091554.515000", "091554.531000", "091554.531000", "091554.531000", "091554.531000", "091554.531000", "091554.531000", "091554.546000", "091554.546000", "091554.546000", "091554.562000", "091554.562000", "091554.562000", "091614.500000", "091614.500000", "091614.500000", "091614.515000", "091614.515000", "091614.515000", "091614.515000", "091614.515000", "091614.531000", "091614.531000", "091614.531000", "091614.531000", "091614.531000", "091614.531000", "091614.531000", "091614.546000", "091614.546000", "091614.546000", "091614.546000", "091614.546000", "091634.500000", "091634.500000", "091634.500000", "091634.515000", "091634.515000", "091634.515000", "091634.515000", "091634.531000", "091634.531000", "091634.531000", "091634.531000", "091634.531000", "091634.531000", "091634.531000", "091634.546000", "091634.546000", "091634.546000", "091634.546000", "091634.546000", "091634.546000", "091654.500000", "091654.500000", "091654.515000", "091654.515000", "091654.515000", "091654.531000", "091654.531000", "091654.531000", "091654.531000", "091654.531000", "091654.531000", "091654.546000", "091654.546000", "091654.546000", "091654.546000", "091654.546000", "091654.562000", "091654.562000", "091654.562000", "091654.562000", "091718.218000", "091718.218000", "091718.234000", "091718.234000", "091718.234000", "091718.234000", "091718.250000", "091718.250000", "091718.250000", "091718.250000", "091718.250000", "091718.250000", "091718.265000", "091718.265000", "091718.265000", "091718.265000", "091718.265000", "091718.265000", "091718.265000"],
      "InstanceNumber": [1, 2, 3, 4, 5, 6, 7, 8, 9, 10, 11, 12, 13, 14, 15, 16, 17, 18, 19, 20, 21, 22, 23, 24, 25, 26, 27, 28, 29, 30, 31, 32, 33, 34, 35, 36, 37, 38, 39, 40, 41, 42, 43, 44, 45, 46, 47, 48, 49, 50, 51, 52, 53, 54, 55, 56, 57, 58, 59, 60, 61, 62, 63, 64, 65, 66, 67, 68, 69, 70, 71, 72, 73, 74, 75, 76, 77, 78, 79, 80, 81, 82, 83, 84, 85, 86, 87, 88, 89, 90, 91, 92, 93, 94, 95, 96, 97, 98, 99, 100, 101, 102, 103, 104, 105, 106, 107, 108, 109, 110, 111, 112, 113, 114, 115, 116, 117, 118, 119, 120, 121, 122, 123, 124, 125, 126, 127, 128, 129, 130, 131, 132, 133, 134, 135, 136, 137, 138, 139, 140, 141, 142, 143, 144, 145, 146, 147, 148, 149, 150, 151, 152, 153, 154, 155, 156, 157, 158, 159, 160, 161, 162, 163, 164, 165, 166, 167, 168, 169, 170, 171, 172, 173, 174, 175, 176, 177, 178, 179, 180, 181, 182, 183, 184, 185, 186, 187, 188, 189, 190, 191, 192, 193, 194, 195, 196, 197, 198, 199, 200, 201, 202, 203, 204, 205, 206, 207, 208, 209, 210, 211, 212, 213, 214, 215, 216, 217, 218, 219, 220, 221, 222, 223, 224, 225, 226, 227, 228, 229, 230, 231, 232, 233, 234, 235, 236, 237, 238, 239, 240, 241, 242, 243, 244, 245, 246, 247, 248, 249, 250, 251, 252, 253, 254, 255, 256, 257, 258, 259, 260, 261, 262, 263, 264, 265, 266, 267, 268, 269, 270, 271, 272, 273, 274, 275, 276, 277, 278, 279, 280, 281, 282, 283, 284, 285, 286, 287, 288, 289, 290, 291, 292, 293, 294, 295, 296, 297, 298, 299, 300, 301, 302, 303, 304, 305, 306, 307, 308, 309, 310, 311, 312, 313, 314, 315, 316, 317, 318, 319, 320, 321, 322, 323, 324, 325, 326, 327, 328, 329, 330],
      "LargestImagePixelValue": [3001, 2982, 2935, 2936, 2956, 2907, 2989, 2852, 2895, 2910, 2883, 2895, 2895, 2896, 2925, 2868, 2901, 2905, 2884, 2903, 2882, 2909, 2970, 2942, 2928, 2912, 2929, 2860, 2940, 2841, 2878, 2865, 2858, 2880, 2877, 2896, 2919, 2901, 2895, 2951, 2939, 2918, 2848, 2922, 2928, 2944, 2892, 2865, 2864, 2875, 2900, 2865, 2951, 2926, 2930, 2894, 2890, 2957, 2916, 2904, 2919, 2947, 2860, 2876, 2907, 2901, 2896, 2895, 2885, 2962, 2964, 2896, 2947, 2971, 2923, 2952, 2862, 2897, 2912, 2876, 2897, 2865, 2916, 2901, 2900, 2898, 2907, 2884, 2903, 2918, 2928, 2873, 2886, 2914, 2897, 2892, 2865, 2908, 2894, 3025, 2893, 2925, 2873, 2947, 2928, 2868, 2900, 2904, 2888, 2871, 2900, 2917, 2879, 2936, 2901, 2927, 2892, 2899, 2912, 2908, 2905, 2933, 2899, 2898, 2867, 2921, 2894, 2929, 2928, 2953, 2987, 2954, 2917, 2905, 2913, 2918, 2942, 2893, 2908, 2933, 2912, 2943, 2934, 2894, 2906, 2947, 2889, 2956, 2906, 2931, 2943, 2871, 2888, 2889, 2891, 2897, 2916, 2885, 2911, 2891, 2944, 2918, 2872, 2946, 2900, 2945, 2940, 2908, 2904, 2877, 2958, 2901, 2923, 2898, 2924, 2958, 2975, 2953, 2871, 2941, 2922, 2912, 2883, 2925, 2930, 2928, 2928, 2927, 2945, 2935, 2946, 2975, 2938, 2956, 2937, 2905, 2930, 2932, 2919, 2937, 2960, 2946, 2926, 2990, 2999, 2952, 2953, 2982, 2967, 2937, 2910, 2976, 2920, 2945, 2953, 2950, 2928, 2924, 2890, 2913, 2957, 2921, 2946, 2912, 2997, 2926, 2958, 2962, 2948, 2965, 2975, 2945, 2945, 2962, 2955, 2952, 2960, 2955, 2977, 2960, 2943, 2955, 2944, 2954, 2946, 2939, 2961, 2897, 2968, 2930, 2926, 2940, 2896, 2941, 2912, 2941, 2915, 2913, 2982, 2958, 2941, 2979, 2901, 2954, 2936, 2925, 2932, 2936, 2849, 2878, 2905, 2921, 2935, 2891, 2891, 2904, 2928, 2940, 2927, 2928, 2945, 2900, 2912, 2944, 2878, 2943, 2922, 2909, 2894, 2880, 2998, 2941, 2948, 2895, 2950, 2967, 2949, 2967, 2970, 2911, 2938, 2912, 2939, 2901, 2932, 2916, 2975, 2917, 2939, 2920, 2956, 2955, 2947, 2948, 3001, 2953, 2957, 2951, 2940, 2938, 2923, 2982, 2903, 2933, 2978, 2935, 2954, 2924, 2933, 2984],
      "WindowCenter": [450.0, 450.0, 448.0, 447.0, 447.0, 446.0, 447.0, 446.0, 446.0, 447.0, 446.0, 446.0, 446.0, 446.0, 446.0, 445.0, 445.0, 445.0, 446.0, 446.0, 447.0, 447.0, 447.0, 446.0, 446.0, 447.0, 446.0, 446.0, 447.0, 446.0, 446.0, 446.0, 446.0, 446.0, 446.0, 447.0, 448.0, 448.0, 448.0, 448.0, 447.0, 447.0, 446.0, 447.0, 446.0, 447.0, 447.0, 447.0, 447.0, 447.0, 447.0, 446.0, 447.0, 446.0, 446.0, 445.0, 445.0, 446.0, 446.0, 447.0, 447.0, 447.0, 447.0, 447.0, 447.0, 447.0, 447.0, 447.0, 447.0, 448.0, 448.0, 447.0, 448.0, 448.0, 447.0, 447.0, 447.0, 447.0, 448.0, 447.0, 447.0, 446.0, 447.0, 446.0, 447.0, 447.0, 447.0, 447.0, 448.0, 448.0, 447.0, 447.0, 447.0, 447.0, 448.0, 448.0, 448.0, 448.0, 448.0, 448.0, 446.0, 447.0, 446.0, 446.0, 446.0, 445.0, 445.0, 446.0, 445.0, 445.0, 446.0, 446.0, 446.0, 447.0, 446.0, 447.0, 448.0, 448.0, 448.0, 448.0, 448.0, 447.0, 446.0, 446.0, 446.0, 447.0, 447.0, 448.0, 448.0, 449.0, 449.0, 448.0, 447.0, 447.0, 447.0, 447.0, 448.0, 447.0, 447.0, 447.0, 447.0, 446.0, 446.0, 446.0, 446.0, 446.0, 446.0, 447.0, 447.0, 447.0, 447.0, 447.0, 447.0, 447.0, 447.0, 447.0, 447.0, 447.0, 447.0, 447.0, 447.0, 447.0, 447.0, 449.0, 448.0, 449.0, 449.0, 448.0, 448.0, 448.0, 449.0, 448.0, 448.0, 448.0, 447.0, 447.0, 447.0, 448.0, 447.0, 448.0, 447.0, 447.0, 446.0, 446.0, 446.0, 446.0, 446.0, 446.0, 446.0, 446.0, 446.0, 446.0, 446.0, 448.0, 448.0, 447.0, 446.0, 446.0, 446.0, 445.0, 445.0, 445.0, 445.0, 446.0, 447.0, 447.0, 448.0, 448.0, 448.0, 448.0, 447.0, 448.0, 447.0, 446.0, 446.0, 446.0, 446.0, 446.0, 446.0, 446.0, 447.0, 446.0, 446.0, 447.0, 448.0, 447.0, 447.0, 446.0, 446.0, 446.0, 448.0, 448.0, 448.0, 448.0, 448.0, 448.0, 448.0, 447.0, 448.0, 448.0, 447.0, 448.0, 448.0, 448.0, 449.0, 449.0, 449.0, 448.0, 449.0, 448.0, 448.0, 448.0, 448.0, 449.0, 449.0, 449.0, 448.0, 448.0, 449.0, 448.0, 448.0, 448.0, 448.0, 448.0, 448.0, 448.0, 449.0, 448.0, 447.0, 447.0, 447.0, 448.0, 448.0, 447.0, 448.0, 448.0, 448.0, 449.0, 449.0, 449.0, 449.0, 449.0, 449.0, 448.0, 447.0, 448.0, 447.0, 447.0, 447.0, 447.0, 448.0, 447.0, 447.0, 447.0, 448.0, 448.0, 448.0, 449.0, 449.0, 449.0, 448.0, 447.0, 447.0, 447.0, 447.0, 447.0, 447.0, 447.0, 447.0, 447.0, 447.0, 447.0, 447.0, 448.0, 448.0, 448.0, 449.0, 449.0, 448.0, 448.0, 447.0, 446.0, 446.0, 446.0, 447.0, 446.0, 447.0, 447.0, 448.0, 448.0],
