{
  "AcquisitionMatrixPE": 104,
  "AcquisitionNumber": 1,
  "AcquisitionTime": "11:36:30.160000",
  "BandwidthPerPixelPhaseEncode": 43.054,
  "BaseResolution": 104,
  "CoilString": "C:E1_2",
  "ConversionSoftware": "dcm2niix",
  "ConversionSoftwareVersion": "v1.0.20191031",
  "DerivedVendorReportedEchoSpacing": 0.000669999,
  "DeviceSerialNumber": "18932",
  "DwellTime": 2.8e-06,
  "EchoTime": 0.02,
  "EffectiveEchoSpacing": 0.000223333,
  "FlipAngle": 30,
  "ImageComments": "Unaliased_MB2_PE2",
  "ImageOrientationPatientDICOM": [1, 0, 0, 0, 0.972776, -0.231748],
  "ImageType": [
    "ORIGINAL",
    "PRIMARY",
    "M",
    "MB",
    "ND",
    "MOSAIC"
],
  "ImagingFrequency": 297.229,
  "InPlanePhaseEncodingDirectionDICOM": "COL",
  "InstitutionAddress": "Richmond_Street_North_1151_London_409EF2_Ontario_CA_N6A_5B7",
  "InstitutionName": "Robarts_Reserch_Institute",
  "InstitutionalDepartmentName": "Department",
  "MRAcquisitionType": "2D",
  "MagneticFieldStrength": 6.98,
  "Manufacturer": "Siemens",
  "ManufacturersModelName": "Investigational_Device_7T",
  "Modality": "MR",
  "MultibandAccelerationFactor": 2,
  "ParallelReductionFactorInPlane": 3,
  "PartialFourier": 0.875,
  "PatientPosition": "HFS",
  "PercentPhaseFOV": 100,
  "PhaseEncodingDirection": "j-",
  "PhaseEncodingSteps": 91,
  "PhaseResolution": 1,
  "PixelBandwidth": 1717,
  "ProcedureStepDescription": "Diedrichsen_SeqRep4",
  "ProtocolName": "mbep2d_bold_mb2_p3_AP_2iso",
  "PulseSequenceDetails": "%CustomerSeq%_cmrr_mbep2d_bold",
  "ReceiveCoilName": "CFMM_8Tx32Rx",
  "ReconMatrixPE": 104,
  "RefLinesPE": 36,
  "RepetitionTime": 1,
  "ScanOptions": "PFP_FS",
  "ScanningSequence": "EP",
  "SequenceName": "epfid2d1_104",
  "SequenceVariant": "SK_SS",
  "SeriesDescription": "mbep2d_bold_mb2_p3_AP_2iso",
  "SeriesNumber": 26,
  "ShimSetting": [-42, 2071, 3, 1492, 24, 2, 67, -200],
  "SliceThickness": 2,
  "SliceTiming": [0, 0.2275, 0.455, 0.6825, 0.91, 0.135, 0.365, 0.5925, 0.82, 0.045, 0.2725, 0.5, 0.7275, 0.9575, 0.1825, 0.41, 0.6375, 0.865, 0.09, 0.3175, 0.545, 0.775, 0, 0.2275, 0.455, 0.6825, 0.91, 0.135, 0.365, 0.5925, 0.82, 0.045, 0.2725, 0.5, 0.7275, 0.9575, 0.1825, 0.41, 0.6375, 0.865, 0.09, 0.3175, 0.545, 0.775],
  "SoftwareVersions": "syngo_MR_B17",
  "SpacingBetweenSlices": 2,
  "StationName": "MASTER",
  "TaskName": "dsp",
  "TotalReadoutTime": 0.0230033,
  "TxRefAmp": 120,
  "dcmmeta_affine": [
    [-2.0, 0.0, 0.0, 105.4527816772461],
    [0.0, 1.9455517530441284, -0.46349579095840454, -109.59912872314453],
    [0.0, 0.46349579095840454, 1.9455517530441284, -53.16842269897461],
    [0.0, 0.0, 0.0, 1.0]
],
  "dcmmeta_reorient_transform": [
    [0.0, -1.0, 0.0, 103.0],
    [1.0, 0.0, 0.0, 0.0],
    [0.0, 0.0, 1.0, 0.0],
    [0.0, 0.0, 0.0, 1.0]
],
  "dcmmeta_shape": [104, 104, 44, 330],
  "dcmmeta_slice_dim": 2,
  "dcmmeta_version": 0.6,
  "global": {
    "const": {
      "AcquisitionMatrix": [104, 0, 0, 104],
      "AngioFlag": "N",
      "BitsAllocated": 16,
      "BitsStored": 12,
      "Columns": 728,
      "EchoNumbers": 1,
      "EchoTime": 20.0,
      "EchoTrainLength": 1,
      "FlipAngle": 30.0,
      "HighBit": 11,
      "ImageOrientationPatient": [1.0, 0.0, 0.0, 0.0, 0.97277587948169, -0.2317478981536],
      "ImagePositionPatient": [-729.45278453827, -697.80484939506, 139.18233184008],
      "ImageType": [
        "ORIGINAL",
        "PRIMARY",
        "M",
        "MB",
        "ND",
        "MOSAIC"
],
      "ImagedNucleus": "1H",
      "ImagingFrequency": 297.228943,
      "InPlanePhaseEncodingDirection": "COL",
      "MRAcquisitionType": "2D",
      "MagneticFieldStrength": 6.98,
      "Manufacturer": "SIEMENS",
      "ManufacturerModelName": "Investigational_Device_7T",
      "Modality": "MR",
      "NumberOfAverages": 1.0,
      "NumberOfPhaseEncodingSteps": 91,
      "PercentPhaseFieldOfView": 100.0,
      "PercentSampling": 100.0,
      "PerformedProcedureStepStartTime": "103843.453000",
      "PhotometricInterpretation": "MONOCHROME2",
      "PixelBandwidth": 1717.0,
      "PixelRepresentation": 0,
      "PixelSpacing": [2.0, 2.0],
      "ProtocolName": "mbep2d_bold_mb2_p3_AP 2iso",
      "RepetitionTime": 1000.0,
      "Rows": 728,
      "SAR": 0.0,
      "SamplesPerPixel": 1,
      "ScanOptions": [
        "PFP",
        "FS"
],
      "ScanningSequence": "EP",
      "SequenceName": "epfid2d1_104",
      "SequenceVariant": [
        "SK",
        "SS"
],
      "SeriesDescription": "mbep2d_bold_mb2_p3_AP 2iso",
      "SeriesNumber": 26,
      "SeriesTime": "113700.812000",
      "SliceLocation": -26.321591904653,
      "SliceThickness": 2.0,
      "SmallestImagePixelValue": 0,
      "SoftwareVersions": "syngo MR B17",
      "SpacingBetweenSlices": 1.9999999621195,
      "SpecificCharacterSet": "ISO_IR 100",
      "StudyID": "1",
      "StudyTime": "103843.390000",
      "TransmitCoilName": "CFMM_8Tx32Rx",
      "VariableFlipAngleFlag": "N",
      "WindowCenterWidthExplanation": "Algo1",
      "dBdt": 0.0},
    "slices": {}
  },
  "time": {
    "samples": {
      "AcquisitionNumber": [1, 2, 3, 4, 5, 6, 7, 8, 9, 10, 11, 12, 13, 14, 15, 16, 17, 18, 19, 20, 21, 22, 23, 24, 25, 26, 27, 28, 29, 30, 31, 32, 33, 34, 35, 36, 37, 38, 39, 40, 41, 42, 43, 44, 45, 46, 47, 48, 49, 50, 51, 52, 53, 54, 55, 56, 57, 58, 59, 60, 61, 62, 63, 64, 65, 66, 67, 68, 69, 70, 71, 72, 73, 74, 75, 76, 77, 78, 79, 80, 81, 82, 83, 84, 85, 86, 87, 88, 89, 90, 91, 92, 93, 94, 95, 96, 97, 98, 99, 100, 101, 102, 103, 104, 105, 106, 107, 108, 109, 110, 111, 112, 113, 114, 115, 116, 117, 118, 119, 120, 121, 122, 123, 124, 125, 126, 127, 128, 129, 130, 131, 132, 133, 134, 135, 136, 137, 138, 139, 140, 141, 142, 143, 144, 145, 146, 147, 148, 149, 150, 151, 152, 153, 154, 155, 156, 157, 158, 159, 160, 161, 162, 163, 164, 165, 166, 167, 168, 169, 170, 171, 172, 173, 174, 175, 176, 177, 178, 179, 180, 181, 182, 183, 184, 185, 186, 187, 188, 189, 190, 191, 192, 193, 194, 195, 196, 197, 198, 199, 200, 201, 202, 203, 204, 205, 206, 207, 208, 209, 210, 211, 212, 213, 214, 215, 216, 217, 218, 219, 220, 221, 222, 223, 224, 225, 226, 227, 228, 229, 230, 231, 232, 233, 234, 235, 236, 237, 238, 239, 240, 241, 242, 243, 244, 245, 246, 247, 248, 249, 250, 251, 252, 253, 254, 255, 256, 257, 258, 259, 260, 261, 262, 263, 264, 265, 266, 267, 268, 269, 270, 271, 272, 273, 274, 275, 276, 277, 278, 279, 280, 281, 282, 283, 284, 285, 286, 287, 288, 289, 290, 291, 292, 293, 294, 295, 296, 297, 298, 299, 300, 301, 302, 303, 304, 305, 306, 307, 308, 309, 310, 311, 312, 313, 314, 315, 316, 317, 318, 319, 320, 321, 322, 323, 324, 325, 326, 327, 328, 329, 330],
      "AcquisitionTime": ["113630.160000", "113631.162500", "113632.167500", "113633.170000", "113634.175000", "113635.180000", "113636.182500", "113637.187500", "113638.190000", "113639.195000", "113640.200000", "113641.202500", "113642.207500", "113643.210000", "113644.215000", "113645.220000", "113646.222500", "113647.227500", "113648.230000", "113649.235000", "113650.240000", "113651.242500", "113652.247500", "113653.252500", "113654.255000", "113655.260000", "113656.262500", "113657.267500", "113658.272500", "113659.275000", "113700.280000", "113701.282500", "113702.287500", "113703.292500", "113704.295000", "113705.300000", "113706.302500", "113707.307500", "113708.312500", "113709.315000", "113710.320000", "113711.322500", "113712.327500", "113713.332500", "113714.335000", "113715.340000", "113716.342500", "113717.347500", "113718.352500", "113719.355000", "113720.360000", "113721.362500", "113722.367500", "113723.372500", "113724.375000", "113725.380000", "113726.385000", "113727.387500", "113728.392500", "113729.395000", "113730.400000", "113731.405000", "113732.407500", "113733.412500", "113734.415000", "113735.420000", "113736.425000", "113737.427500", "113738.432500", "113739.435000", "113740.440000", "113741.445000", "113742.447500", "113743.452500", "113744.455000", "113745.460000", "113746.465000", "113747.467500", "113748.472500", "113749.475000", "113750.480000", "113751.485000", "113752.487500", "113753.492500", "113754.495000", "113755.500000", "113756.505000", "113757.507500", "113758.512500", "113759.517500", "113800.520000", "113801.525000", "113802.527500", "113803.532500", "113804.537500", "113805.540000", "113806.545000", "113807.547500", "113808.552500", "113809.557500", "113810.560000", "113811.565000", "113812.567500", "113813.572500", "113814.577500", "113815.580000", "113816.585000", "113817.587500", "113818.592500", "113819.597500", "113820.600000", "113821.605000", "113822.607500", "113823.612500", "113824.617500", "113825.620000", "113826.625000", "113827.630000", "113828.632500", "113829.637500", "113830.640000", "113831.645000", "113832.650000", "113833.652500", "113834.657500", "113835.660000", "113836.665000", "113837.670000", "113838.672500", "113839.677500", "113840.680000", "113841.685000", "113842.690000", "113843.692500", "113844.697500", "113845.700000", "113846.705000", "113847.710000", "113848.712500", "113849.717500", "113850.720000", "113851.725000", "113852.730000", "113853.732500", "113854.737500", "113855.740000", "113856.745000", "113857.750000", "113858.752500", "113859.757500", "113900.762500", "113901.765000", "113902.770000", "113903.772500", "113904.777500", "113905.782500", "113906.785000", "113907.790000", "113908.792500", "113909.797500", "113910.802500", "113911.805000", "113912.810000", "113913.812500", "113914.817500", "113915.822500", "113916.825000", "113917.830000", "113918.832500", "113919.837500", "113920.842500", "113921.845000", "113922.850000", "113923.852500", "113924.857500", "113925.862500", "113926.865000", "113927.870000", "113928.875000", "113929.877500", "113930.882500", "113931.885000", "113932.890000", "113933.895000", "113934.897500", "113935.902500", "113936.905000", "113937.910000", "113938.915000", "113939.917500", "113940.922500", "113941.925000", "113942.930000", "113943.935000", "113944.937500", "113945.942500", "113946.945000", "113947.950000", "113948.955000", "113949.957500", "113950.962500", "113951.965000", "113952.970000", "113953.975000", "113954.977500", "113955.982500", "113956.985000", "113957.990000", "113958.995000", "113959.997500", "114001.002500", "114002.007500", "114003.010000", "114004.015000", "114005.017500", "114006.022500", "114007.027500", "114008.030000", "114009.035000", "114010.037500", "114011.042500", "114012.047500", "114013.050000", "114014.055000", "114015.057500", "114016.062500", "114017.067500", "114018.070000", "114019.075000", "114020.077500", "114021.082500", "114022.087500", "114023.090000", "114024.095000", "114025.097500", "114026.102500", "114027.107500", "114028.110000", "114029.115000", "114030.117500", "114031.122500", "114032.127500", "114033.130000", "114034.135000", "114035.140000", "114036.142500", "114037.147500", "114038.150000", "114039.155000", "114040.160000", "114041.162500", "114042.167500", "114043.170000", "114044.175000", "114045.180000", "114046.182500", "114047.187500", "114048.190000", "114049.195000", "114050.200000", "114051.202500", "114052.207500", "114053.210000", "114054.215000", "114055.220000", "114056.222500", "114057.227500", "114058.230000", "114059.235000", "114100.240000", "114101.242500", "114102.247500", "114103.252500", "114104.255000", "114105.260000", "114106.262500", "114107.267500", "114108.272500", "114109.275000", "114110.280000", "114111.282500", "114112.287500", "114113.292500", "114114.295000", "114115.300000", "114116.302500", "114117.307500", "114118.312500", "114119.315000", "114120.320000", "114121.322500", "114122.327500", "114123.332500", "114124.335000", "114125.340000", "114126.342500", "114127.347500", "114128.352500", "114129.355000", "114130.360000", "114131.362500", "114132.367500", "114133.372500", "114134.375000", "114135.380000", "114136.385000", "114137.387500", "114138.392500", "114139.395000", "114140.400000", "114141.405000", "114142.407500", "114143.412500", "114144.415000", "114145.420000", "114146.425000", "114147.427500", "114148.432500", "114149.435000", "114150.440000", "114151.445000", "114152.447500", "114153.452500", "114154.455000", "114155.460000", "114156.465000", "114157.467500", "114158.472500", "114159.475000", "114200.480000"],
      "ContentTime": ["113700.812000", "113700.812000", "113700.812000", "113700.812000", "113700.828000", "113700.828000", "113700.828000", "113700.828000", "113700.828000", "113700.828000", "113700.843000", "113700.843000", "113700.843000", "113700.843000", "113700.843000", "113700.843000", "113700.843000", "113700.859000", "113700.859000", "113700.859000", "113700.859000", "113700.859000", "113700.859000", "113700.859000", "113700.875000", "113700.875000", "113700.875000", "113700.875000", "113700.875000", "113720.765000", "113720.781000", "113720.781000", "113720.781000", "113720.781000", "113720.781000", "113720.781000", "113720.781000", "113720.796000", "113720.796000", "113720.796000", "113720.796000", "113720.796000", "113720.796000", "113720.796000", "113720.812000", "113720.812000", "113720.812000", "113720.812000", "113720.812000", "113740.765000", "113740.781000", "113740.781000", "113740.781000", "113740.781000", "113740.781000", "113740.781000", "113740.781000", "113740.796000", "113740.796000", "113740.796000", "113740.796000", "113740.796000", "113740.796000", "113740.812000", "113740.812000", "113740.812000", "113740.812000", "113740.812000", "113740.812000", "113800.765000", "113800.781000", "113800.781000", "113800.781000", "113800.796000", "113800.796000", "113800.796000", "113800.796000", "113800.796000", "113800.796000", "113800.796000", "113800.812000", "113800.812000", "113800.812000", "113800.812000", "113800.812000", "113800.812000", "113800.812000", "113800.812000", "113800.828000", "113820.765000", "113820.781000", "113820.781000", "113820.781000", "113820.781000", "113820.781000", "113820.796000", "113820.796000", "113820.796000", "113820.812000", "113820.812000", "113820.812000", "113820.812000", "113820.812000", "113820.812000", "113820.828000", "113820.828000", "113820.828000", "113820.828000", "113820.828000", "113840.765000", "113840.781000", "113840.781000", "113840.781000", "113840.781000", "113840.796000", "113840.796000", "113840.796000", "113840.796000", "113840.796000", "113840.796000", "113840.796000", "113840.812000", "113840.812000", "113840.812000", "113840.812000", "113840.812000", "113840.812000", "113840.812000", "113840.812000", "113900.765000", "113900.781000", "113900.781000", "113900.781000", "113900.781000", "113900.781000", "113900.781000", "113900.781000", "113900.796000", "113900.796000", "113900.796000", "113900.796000", "113900.796000", "113900.796000", "113900.796000", "113900.796000", "113900.812000", "113900.812000", "113900.812000", "113900.812000", "113920.765000", "113920.781000", "113920.781000", "113920.781000", "113920.781000", "113920.781000", "113920.781000", "113920.781000", "113920.796000", "113920.796000", "113920.796000", "113920.796000", "113920.796000", "113920.796000", "113920.796000", "113920.796000", "113920.812000", "113920.812000", "113920.812000", "113920.812000", "113940.765000", "113940.781000", "113940.781000", "113940.781000", "113940.781000", "113940.796000", "113940.796000", "113940.796000", "113940.796000", "113940.796000", "113940.796000", "113940.796000", "113940.812000", "113940.812000", "113940.812000", "113940.812000", "113940.812000", "113940.828000", "113940.828000", "113940.828000", "114000.765000", "114000.781000", "114000.781000", "114000.781000", "114000.781000", "114000.781000", "114000.781000", "114000.781000", "114000.796000", "114000.796000", "114000.796000", "114000.796000", "114000.796000", "114000.796000", "114000.796000", "114000.812000", "114000.812000", "114000.812000", "114000.812000", "114000.812000", "114020.765000", "114020.781000", "114020.781000", "114020.781000", "114020.781000", "114020.781000", "114020.781000", "114020.781000", "114020.796000", "114020.796000", "114020.796000", "114020.796000", "114020.812000", "114020.812000", "114020.812000", "114020.812000", "114020.812000", "114020.812000", "114020.812000", "114020.812000", "114040.765000", "114040.781000", "114040.781000", "114040.781000", "114040.781000", "114040.796000", "114040.796000", "114040.796000", "114040.796000", "114040.796000", "114040.796000", "114040.796000", "114040.812000", "114040.812000", "114040.812000", "114040.812000", "114040.812000", "114040.812000", "114040.812000", "114040.828000", "114100.765000", "114100.781000", "114100.781000", "114100.781000", "114100.781000", "114100.781000", "114100.781000", "114100.781000", "114100.796000", "114100.796000", "114100.796000", "114100.796000", "114100.796000", "114100.812000", "114100.812000", "114100.812000", "114100.812000", "114100.812000", "114100.812000", "114100.812000", "114120.765000", "114120.781000", "114120.781000", "114120.781000", "114120.781000", "114120.781000", "114120.781000", "114120.796000", "114120.796000", "114120.796000", "114120.796000", "114120.796000", "114120.796000", "114120.796000", "114120.812000", "114120.812000", "114120.812000", "114120.812000", "114120.812000", "114120.828000", "114140.765000", "114140.781000", "114140.781000", "114140.781000", "114140.781000", "114140.781000", "114140.781000", "114140.796000", "114140.796000", "114140.796000", "114140.796000", "114140.796000", "114140.796000", "114140.796000", "114140.812000", "114140.812000", "114140.812000", "114140.812000", "114140.812000", "114140.812000", "114200.765000", "114200.781000", "114200.781000", "114200.781000", "114200.781000", "114200.781000", "114200.781000", "114200.781000", "114200.796000", "114200.796000", "114200.796000", "114200.796000", "114200.796000", "114200.796000", "114200.796000", "114200.812000", "114200.812000", "114200.812000", "114200.812000", "114200.812000", "114206.187000"],
      "InstanceCreationTime": ["113700.812000", "113700.812000", "113700.812000", "113700.812000", "113700.828000", "113700.828000", "113700.828000", "113700.828000", "113700.828000", "113700.828000", "113700.843000", "113700.843000", "113700.843000", "113700.843000", "113700.843000", "113700.843000", "113700.843000", "113700.859000", "113700.859000", "113700.859000", "113700.859000", "113700.859000", "113700.859000", "113700.859000", "113700.875000", "113700.875000", "113700.875000", "113700.875000", "113700.875000", "113720.765000", "113720.781000", "113720.781000", "113720.781000", "113720.781000", "113720.781000", "113720.781000", "113720.781000", "113720.796000", "113720.796000", "113720.796000", "113720.796000", "113720.796000", "113720.796000", "113720.796000", "113720.812000", "113720.812000", "113720.812000", "113720.812000", "113720.812000", "113740.765000", "113740.781000", "113740.781000", "113740.781000", "113740.781000", "113740.781000", "113740.781000", "113740.781000", "113740.796000", "113740.796000", "113740.796000", "113740.796000", "113740.796000", "113740.796000", "113740.812000", "113740.812000", "113740.812000", "113740.812000", "113740.812000", "113740.812000", "113800.765000", "113800.781000", "113800.781000", "113800.781000", "113800.796000", "113800.796000", "113800.796000", "113800.796000", "113800.796000", "113800.796000", "113800.796000", "113800.812000", "113800.812000", "113800.812000", "113800.812000", "113800.812000", "113800.812000", "113800.812000", "113800.812000", "113800.828000", "113820.765000", "113820.781000", "113820.781000", "113820.781000", "113820.781000", "113820.781000", "113820.796000", "113820.796000", "113820.796000", "113820.812000", "113820.812000", "113820.812000", "113820.812000", "113820.812000", "113820.812000", "113820.828000", "113820.828000", "113820.828000", "113820.828000", "113820.828000", "113840.765000", "113840.781000", "113840.781000", "113840.781000", "113840.781000", "113840.796000", "113840.796000", "113840.796000", "113840.796000", "113840.796000", "113840.796000", "113840.796000", "113840.812000", "113840.812000", "113840.812000", "113840.812000", "113840.812000", "113840.812000", "113840.812000", "113840.812000", "113900.765000", "113900.781000", "113900.781000", "113900.781000", "113900.781000", "113900.781000", "113900.781000", "113900.781000", "113900.796000", "113900.796000", "113900.796000", "113900.796000", "113900.796000", "113900.796000", "113900.796000", "113900.796000", "113900.812000", "113900.812000", "113900.812000", "113900.812000", "113920.765000", "113920.781000", "113920.781000", "113920.781000", "113920.781000", "113920.781000", "113920.781000", "113920.781000", "113920.796000", "113920.796000", "113920.796000", "113920.796000", "113920.796000", "113920.796000", "113920.796000", "113920.796000", "113920.812000", "113920.812000", "113920.812000", "113920.812000", "113940.765000", "113940.781000", "113940.781000", "113940.781000", "113940.781000", "113940.796000", "113940.796000", "113940.796000", "113940.796000", "113940.796000", "113940.796000", "113940.796000", "113940.812000", "113940.812000", "113940.812000", "113940.812000", "113940.812000", "113940.828000", "113940.828000", "113940.828000", "114000.765000", "114000.781000", "114000.781000", "114000.781000", "114000.781000", "114000.781000", "114000.781000", "114000.781000", "114000.796000", "114000.796000", "114000.796000", "114000.796000", "114000.796000", "114000.796000", "114000.796000", "114000.812000", "114000.812000", "114000.812000", "114000.812000", "114000.812000", "114020.765000", "114020.781000", "114020.781000", "114020.781000", "114020.781000", "114020.781000", "114020.781000", "114020.781000", "114020.796000", "114020.796000", "114020.796000", "114020.796000", "114020.812000", "114020.812000", "114020.812000", "114020.812000", "114020.812000", "114020.812000", "114020.812000", "114020.812000", "114040.765000", "114040.781000", "114040.781000", "114040.781000", "114040.781000", "114040.796000", "114040.796000", "114040.796000", "114040.796000", "114040.796000", "114040.796000", "114040.796000", "114040.812000", "114040.812000", "114040.812000", "114040.812000", "114040.812000", "114040.812000", "114040.812000", "114040.828000", "114100.765000", "114100.781000", "114100.781000", "114100.781000", "114100.781000", "114100.781000", "114100.781000", "114100.781000", "114100.796000", "114100.796000", "114100.796000", "114100.796000", "114100.796000", "114100.812000", "114100.812000", "114100.812000", "114100.812000", "114100.812000", "114100.812000", "114100.812000", "114120.765000", "114120.781000", "114120.781000", "114120.781000", "114120.781000", "114120.781000", "114120.781000", "114120.796000", "114120.796000", "114120.796000", "114120.796000", "114120.796000", "114120.796000", "114120.796000", "114120.812000", "114120.812000", "114120.812000", "114120.812000", "114120.812000", "114120.828000", "114140.765000", "114140.781000", "114140.781000", "114140.781000", "114140.781000", "114140.781000", "114140.781000", "114140.796000", "114140.796000", "114140.796000", "114140.796000", "114140.796000", "114140.796000", "114140.796000", "114140.812000", "114140.812000", "114140.812000", "114140.812000", "114140.812000", "114140.812000", "114200.765000", "114200.781000", "114200.781000", "114200.781000", "114200.781000", "114200.781000", "114200.781000", "114200.781000", "114200.796000", "114200.796000", "114200.796000", "114200.796000", "114200.796000", "114200.796000", "114200.796000", "114200.812000", "114200.812000", "114200.812000", "114200.812000", "114200.812000", "114206.187000"],
      "InstanceNumber": [1, 2, 3, 4, 5, 6, 7, 8, 9, 10, 11, 12, 13, 14, 15, 16, 17, 18, 19, 20, 21, 22, 23, 24, 25, 26, 27, 28, 29, 30, 31, 32, 33, 34, 35, 36, 37, 38, 39, 40, 41, 42, 43, 44, 45, 46, 47, 48, 49, 50, 51, 52, 53, 54, 55, 56, 57, 58, 59, 60, 61, 62, 63, 64, 65, 66, 67, 68, 69, 70, 71, 72, 73, 74, 75, 76, 77, 78, 79, 80, 81, 82, 83, 84, 85, 86, 87, 88, 89, 90, 91, 92, 93, 94, 95, 96, 97, 98, 99, 100, 101, 102, 103, 104, 105, 106, 107, 108, 109, 110, 111, 112, 113, 114, 115, 116, 117, 118, 119, 120, 121, 122, 123, 124, 125, 126, 127, 128, 129, 130, 131, 132, 133, 134, 135, 136, 137, 138, 139, 140, 141, 142, 143, 144, 145, 146, 147, 148, 149, 150, 151, 152, 153, 154, 155, 156, 157, 158, 159, 160, 161, 162, 163, 164, 165, 166, 167, 168, 169, 170, 171, 172, 173, 174, 175, 176, 177, 178, 179, 180, 181, 182, 183, 184, 185, 186, 187, 188, 189, 190, 191, 192, 193, 194, 195, 196, 197, 198, 199, 200, 201, 202, 203, 204, 205, 206, 207, 208, 209, 210, 211, 212, 213, 214, 215, 216, 217, 218, 219, 220, 221, 222, 223, 224, 225, 226, 227, 228, 229, 230, 231, 232, 233, 234, 235, 236, 237, 238, 239, 240, 241, 242, 243, 244, 245, 246, 247, 248, 249, 250, 251, 252, 253, 254, 255, 256, 257, 258, 259, 260, 261, 262, 263, 264, 265, 266, 267, 268, 269, 270, 271, 272, 273, 274, 275, 276, 277, 278, 279, 280, 281, 282, 283, 284, 285, 286, 287, 288, 289, 290, 291, 292, 293, 294, 295, 296, 297, 298, 299, 300, 301, 302, 303, 304, 305, 306, 307, 308, 309, 310, 311, 312, 313, 314, 315, 316, 317, 318, 319, 320, 321, 322, 323, 324, 325, 326, 327, 328, 329, 330],
      "LargestImagePixelValue": [2506, 2492, 2491, 2449, 2438, 2471, 2395, 2477, 2371, 2382, 2416, 2434, 2422, 2461, 2455, 2560, 2433, 2484, 2539, 2534, 2490, 2527, 2488, 2471, 2504, 2547, 2523, 2535, 2584, 2591, 2463, 2494, 2502, 2479, 2529, 2576, 2429, 2514, 2517, 2500, 2525, 2495, 2472, 2457, 2447, 2487, 2487, 2467, 2478, 2531, 2485, 2474, 2420, 2440, 2455, 2476, 2436, 2430, 2439, 2506, 2461, 2540, 2454, 2461, 2472, 2518, 2500, 2453, 2475, 2494, 2469, 2540, 2547, 2494, 2517, 2523, 2525, 2457, 2521, 2497, 2517, 2505, 2522, 2504, 2533, 2534, 2507, 2465, 2515, 2509, 2541, 2565, 2581, 2519, 2634, 2601, 2568, 2532, 2579, 2567, 2583, 2601, 2499, 2450, 2502, 2479, 2474, 2458, 2514, 2522, 2520, 2584, 2524, 2512, 2531, 2518, 2516, 2532, 2586, 2612, 2633, 2651, 2597, 2630, 2623, 2575, 2632, 2649, 2613, 2645, 2621, 2635, 2621, 2568, 2572, 2611, 2696, 2626, 2554, 2544, 2569, 2547, 2573, 2578, 2584, 2633, 2601, 2624, 2594, 2580, 2612, 2626, 2596, 2593, 2581, 2626, 2612, 2606, 2590, 2631, 2622, 2610, 2643, 2624, 2597, 2645, 2651, 2628, 2603, 2634, 2643, 2609, 2611, 2598, 2605, 2635, 2636, 2654, 2587, 2610, 2613, 2610, 2642, 2560, 2552, 2590, 2560, 2555, 2580, 2580, 2704, 2683, 2692, 2657, 2679, 2674, 2670, 2675, 2740, 2674, 2701, 2695, 2704, 2693, 2711, 2663, 2687, 2675, 2687, 2688, 2679, 2658, 2665, 2680, 2647, 2717, 2700, 2655, 2695, 2681, 2693, 2713, 2686, 2731, 2706, 2690, 2657, 2692, 2708, 2686, 2723, 2715, 2704, 2699, 2698, 2686, 2688, 2696, 2715, 2682, 2596, 2600, 2584, 2553, 2558, 2597, 2599, 2623, 2631, 2619, 2638, 2641, 2649, 2624, 2642, 2648, 2636, 2659, 2670, 2610, 2571, 2600, 2580, 2574, 2571, 2632, 2605, 2652, 2629, 2663, 2612, 2649, 2635, 2669, 2656, 2681, 2651, 2638, 2638, 2660, 2380, 2604, 2638, 2686, 2688, 2684, 2707, 2705, 2654, 2673, 2680, 2685, 2537, 2525, 2536, 2570, 2562, 2577, 2561, 2627, 2571, 2583, 2640, 2630, 2633, 2633, 2639, 2681, 2653, 2633, 2656, 2548, 2554, 2526, 2445, 2463, 2451, 2416, 2389, 2419, 2392, 2434, 2462, 2457, 2385, 2361, 2437, 2450, 2355, 2401],
      "WindowCenter": [420.0, 420.0, 420.0, 419.0, 419.0, 420.0, 420.0, 421.0, 419.0, 419.0, 419.0, 419.0, 419.0, 418.0, 419.0, 420.0, 418.0, 418.0, 419.0, 420.0, 419.0, 420.0, 420.0, 419.0, 419.0, 419.0, 418.0, 418.0, 418.0, 419.0, 419.0, 419.0, 419.0, 418.0, 418.0, 417.0, 416.0, 417.0, 418.0, 419.0, 420.0, 420.0, 419.0, 419.0, 418.0, 418.0, 417.0, 415.0, 416.0, 417.0, 418.0, 419.0, 419.0, 419.0, 418.0, 417.0, 416.0, 416.0, 417.0, 418.0, 419.0, 419.0, 419.0, 419.0, 418.0, 418.0, 418.0, 418.0, 418.0, 419.0, 419.0, 419.0, 420.0, 420.0, 420.0, 419.0, 418.0, 416.0, 417.0, 416.0, 416.0, 416.0, 417.0, 417.0, 418.0, 418.0, 417.0, 416.0, 417.0, 417.0, 417.0, 417.0, 418.0, 419.0, 420.0, 420.0, 419.0, 418.0, 417.0, 416.0, 417.0, 417.0, 417.0, 418.0, 419.0, 418.0, 418.0, 417.0, 417.0, 417.0, 417.0, 417.0, 417.0, 418.0, 418.0, 418.0, 418.0, 418.0, 419.0, 419.0, 419.0, 420.0, 420.0, 420.0, 420.0, 419.0, 419.0, 419.0, 419.0, 418.0, 419.0, 419.0, 418.0, 418.0, 417.0, 418.0, 419.0, 419.0, 420.0, 421.0, 421.0, 420.0, 420.0, 420.0, 418.0, 419.0, 418.0, 418.0, 418.0, 420.0, 420.0, 420.0, 420.0, 419.0, 419.0, 419.0, 419.0, 420.0, 420.0, 420.0, 420.0, 420.0, 420.0, 420.0, 420.0, 420.0, 420.0, 420.0, 420.0, 421.0, 422.0, 421.0, 421.0, 421.0, 420.0, 421.0, 422.0, 421.0, 420.0, 420.0, 420.0, 419.0, 420.0, 421.0, 422.0, 422.0, 423.0, 423.0, 422.0, 422.0, 424.0, 424.0, 424.0, 424.0, 424.0, 423.0, 422.0, 421.0, 422.0, 422.0, 421.0, 422.0, 421.0, 421.0, 422.0, 422.0, 423.0, 423.0, 423.0, 422.0, 421.0, 421.0, 421.0, 421.0, 421.0, 422.0, 423.0, 423.0, 424.0, 424.0, 424.0, 423.0, 422.0, 422.0, 421.0, 421.0, 421.0, 421.0, 421.0, 421.0, 423.0, 423.0, 424.0, 423.0, 422.0, 422.0, 421.0, 421.0, 422.0, 421.0, 422.0, 422.0, 422.0, 422.0, 422.0, 421.0, 421.0, 421.0, 421.0, 422.0, 422.0, 422.0, 421.0, 420.0, 420.0, 421.0, 420.0, 421.0, 422.0, 422.0, 422.0, 422.0, 422.0, 421.0, 420.0, 421.0, 420.0, 420.0, 420.0, 421.0, 421.0, 421.0, 420.0, 421.0, 421.0, 421.0, 420.0, 421.0, 420.0, 421.0, 420.0, 422.0, 422.0, 422.0, 421.0, 421.0, 421.0, 420.0, 420.0, 420.0, 420.0, 420.0, 420.0, 420.0, 422.0, 422.0, 422.0, 422.0, 422.0, 421.0, 421.0, 421.0, 421.0, 421.0, 421.0, 421.0, 421.0, 420.0, 420.0, 421.0, 420.0, 420.0, 421.0, 420.0, 420.0, 421.0, 420.0, 420.0, 420.0, 419.0, 419.0, 419.0, 419.0, 419.0, 419.0, 419.0, 419.0, 420.0, 419.0, 419.0],
