{
  "AcquisitionMatrixPE": 104,
  "AcquisitionNumber": 1,
  "AcquisitionTime": "11:07:5.525000",
  "BandwidthPerPixelPhaseEncode": 43.054,
  "BaseResolution": 104,
  "CoilString": "C:E1_2",
  "ConversionSoftware": "dcm2niix",
  "ConversionSoftwareVersion": "v1.0.20191031",
  "DerivedVendorReportedEchoSpacing": 0.000669999,
  "DeviceSerialNumber": "18932",
  "DwellTime": 2.8e-06,
  "EchoTime": 0.02,
  "EffectiveEchoSpacing": 0.000223333,
  "FlipAngle": 30,
  "ImageComments": "Unaliased_MB2_PE2",
  "ImageOrientationPatientDICOM": [1, 0, 0, 0, 0.972776, -0.231748],
  "ImageType": [
    "ORIGINAL",
    "PRIMARY",
    "M",
    "MB",
    "ND",
    "MOSAIC"
],
  "ImagingFrequency": 297.229,
  "InPlanePhaseEncodingDirectionDICOM": "COL",
  "InstitutionAddress": "Richmond_Street_North_1151_London_409EF2_Ontario_CA_N6A_5B7",
  "InstitutionName": "Robarts_Reserch_Institute",
  "InstitutionalDepartmentName": "Department",
  "MRAcquisitionType": "2D",
  "MagneticFieldStrength": 6.98,
  "Manufacturer": "Siemens",
  "ManufacturersModelName": "Investigational_Device_7T",
  "Modality": "MR",
  "MultibandAccelerationFactor": 2,
  "ParallelReductionFactorInPlane": 3,
  "PartialFourier": 0.875,
  "PatientPosition": "HFS",
  "PercentPhaseFOV": 100,
  "PhaseEncodingDirection": "j-",
  "PhaseEncodingSteps": 91,
  "PhaseResolution": 1,
  "PixelBandwidth": 1717,
  "ProcedureStepDescription": "Diedrichsen_SeqRep4",
  "ProtocolName": "mbep2d_bold_mb2_p3_AP_2iso",
  "PulseSequenceDetails": "%CustomerSeq%_cmrr_mbep2d_bold",
  "ReceiveCoilName": "CFMM_8Tx32Rx",
  "ReconMatrixPE": 104,
  "RefLinesPE": 36,
  "RepetitionTime": 1,
  "ScanOptions": "PFP_FS",
  "ScanningSequence": "EP",
  "SequenceName": "epfid2d1_104",
  "SequenceVariant": "SK_SS",
  "SeriesDescription": "mbep2d_bold_mb2_p3_AP_2iso",
  "SeriesNumber": 15,
  "ShimSetting": [-42, 2071, 3, 1492, 24, 2, 67, -200],
  "SliceThickness": 2,
  "SliceTiming": [0, 0.2275, 0.455, 0.685, 0.9125, 0.1375, 0.365, 0.5925, 0.82, 0.045, 0.2725, 0.5025, 0.73, 0.9575, 0.1825, 0.41, 0.6375, 0.8675, 0.09, 0.32, 0.5475, 0.775, 0, 0.2275, 0.455, 0.685, 0.9125, 0.1375, 0.365, 0.5925, 0.82, 0.045, 0.2725, 0.5025, 0.73, 0.9575, 0.1825, 0.41, 0.6375, 0.8675, 0.09, 0.32, 0.5475, 0.775],
  "SoftwareVersions": "syngo_MR_B17",
  "SpacingBetweenSlices": 2,
  "StationName": "MASTER",
  "TaskName": "dsp",
  "TotalReadoutTime": 0.0230033,
  "TxRefAmp": 120,
  "dcmmeta_affine": [
    [-2.0, 0.0, 0.0, 105.4527816772461],
    [0.0, 1.9455517530441284, -0.46349579095840454, -109.59912872314453],
    [0.0, 0.46349579095840454, 1.9455517530441284, -53.16842269897461],
    [0.0, 0.0, 0.0, 1.0]
],
  "dcmmeta_reorient_transform": [
    [0.0, -1.0, 0.0, 103.0],
    [1.0, 0.0, 0.0, 0.0],
    [0.0, 0.0, 1.0, 0.0],
    [0.0, 0.0, 0.0, 1.0]
],
  "dcmmeta_shape": [104, 104, 44, 330],
  "dcmmeta_slice_dim": 2,
  "dcmmeta_version": 0.6,
  "global": {
    "const": {
      "AcquisitionMatrix": [104, 0, 0, 104],
      "AngioFlag": "N",
      "BitsAllocated": 16,
      "BitsStored": 12,
      "Columns": 728,
      "EchoNumbers": 1,
      "EchoTime": 20.0,
      "EchoTrainLength": 1,
      "FlipAngle": 30.0,
      "HighBit": 11,
      "ImageOrientationPatient": [1.0, 0.0, 0.0, 0.0, 0.97277587948169, -0.2317478981536],
      "ImagePositionPatient": [-729.45278453827, -697.80484939506, 139.18233184008],
      "ImageType": [
        "ORIGINAL",
        "PRIMARY",
        "M",
        "MB",
        "ND",
        "MOSAIC"
],
      "ImagedNucleus": "1H",
      "ImagingFrequency": 297.228938,
      "InPlanePhaseEncodingDirection": "COL",
      "MRAcquisitionType": "2D",
      "MagneticFieldStrength": 6.98,
      "Manufacturer": "SIEMENS",
      "ManufacturerModelName": "Investigational_Device_7T",
      "Modality": "MR",
      "NumberOfAverages": 1.0,
      "NumberOfPhaseEncodingSteps": 91,
      "PercentPhaseFieldOfView": 100.0,
      "PercentSampling": 100.0,
      "PerformedProcedureStepStartTime": "103843.453000",
      "PhotometricInterpretation": "MONOCHROME2",
      "PixelBandwidth": 1717.0,
      "PixelRepresentation": 0,
      "PixelSpacing": [2.0, 2.0],
      "ProtocolName": "mbep2d_bold_mb2_p3_AP 2iso",
      "RepetitionTime": 1000.0,
      "Rows": 728,
      "SAR": 0.0,
      "SamplesPerPixel": 1,
      "ScanOptions": [
        "PFP",
        "FS"
],
      "ScanningSequence": "EP",
      "SequenceName": "epfid2d1_104",
      "SequenceVariant": [
        "SK",
        "SS"
],
      "SeriesDescription": "mbep2d_bold_mb2_p3_AP 2iso",
      "SeriesNumber": 15,
      "SeriesTime": "110741.562000",
      "SliceLocation": -26.321591904653,
      "SliceThickness": 2.0,
      "SmallestImagePixelValue": 0,
      "SoftwareVersions": "syngo MR B17",
      "SpacingBetweenSlices": 1.9999999621195,
      "SpecificCharacterSet": "ISO_IR 100",
      "StudyID": "1",
      "StudyTime": "103843.390000",
      "TransmitCoilName": "CFMM_8Tx32Rx",
      "VariableFlipAngleFlag": "N",
      "WindowCenterWidthExplanation": "Algo1",
      "dBdt": 0.0},
    "slices": {}
  },
  "time": {
    "samples": {
      "AcquisitionNumber": [1, 2, 3, 4, 5, 6, 7, 8, 9, 10, 11, 12, 13, 14, 15, 16, 17, 18, 19, 20, 21, 22, 23, 24, 25, 26, 27, 28, 29, 30, 31, 32, 33, 34, 35, 36, 37, 38, 39, 40, 41, 42, 43, 44, 45, 46, 47, 48, 49, 50, 51, 52, 53, 54, 55, 56, 57, 58, 59, 60, 61, 62, 63, 64, 65, 66, 67, 68, 69, 70, 71, 72, 73, 74, 75, 76, 77, 78, 79, 80, 81, 82, 83, 84, 85, 86, 87, 88, 89, 90, 91, 92, 93, 94, 95, 96, 97, 98, 99, 100, 101, 102, 103, 104, 105, 106, 107, 108, 109, 110, 111, 112, 113, 114, 115, 116, 117, 118, 119, 120, 121, 122, 123, 124, 125, 126, 127, 128, 129, 130, 131, 132, 133, 134, 135, 136, 137, 138, 139, 140, 141, 142, 143, 144, 145, 146, 147, 148, 149, 150, 151, 152, 153, 154, 155, 156, 157, 158, 159, 160, 161, 162, 163, 164, 165, 166, 167, 168, 169, 170, 171, 172, 173, 174, 175, 176, 177, 178, 179, 180, 181, 182, 183, 184, 185, 186, 187, 188, 189, 190, 191, 192, 193, 194, 195, 196, 197, 198, 199, 200, 201, 202, 203, 204, 205, 206, 207, 208, 209, 210, 211, 212, 213, 214, 215, 216, 217, 218, 219, 220, 221, 222, 223, 224, 225, 226, 227, 228, 229, 230, 231, 232, 233, 234, 235, 236, 237, 238, 239, 240, 241, 242, 243, 244, 245, 246, 247, 248, 249, 250, 251, 252, 253, 254, 255, 256, 257, 258, 259, 260, 261, 262, 263, 264, 265, 266, 267, 268, 269, 270, 271, 272, 273, 274, 275, 276, 277, 278, 279, 280, 281, 282, 283, 284, 285, 286, 287, 288, 289, 290, 291, 292, 293, 294, 295, 296, 297, 298, 299, 300, 301, 302, 303, 304, 305, 306, 307, 308, 309, 310, 311, 312, 313, 314, 315, 316, 317, 318, 319, 320, 321, 322, 323, 324, 325, 326, 327, 328, 329, 330],
      "AcquisitionTime": ["110705.525000", "110706.530000", "110707.532500", "110708.537500", "110709.540000", "110710.545000", "110711.550000", "110712.552500", "110713.557500", "110714.560000", "110715.565000", "110716.570000", "110717.572500", "110718.577500", "110719.580000", "110720.585000", "110721.590000", "110722.592500", "110723.597500", "110724.600000", "110725.605000", "110726.610000", "110727.612500", "110728.617500", "110729.622500", "110730.625000", "110731.630000", "110732.632500", "110733.637500", "110734.642500", "110735.645000", "110736.650000", "110737.652500", "110738.657500", "110739.662500", "110740.665000", "110741.670000", "110742.672500", "110743.677500", "110744.682500", "110745.685000", "110746.690000", "110747.692500", "110748.697500", "110749.702500", "110750.705000", "110751.710000", "110752.712500", "110753.717500", "110754.722500", "110755.725000", "110756.730000", "110757.732500", "110758.737500", "110759.742500", "110800.745000", "110801.750000", "110802.755000", "110803.757500", "110804.762500", "110805.765000", "110806.770000", "110807.775000", "110808.777500", "110809.782500", "110810.785000", "110811.790000", "110812.795000", "110813.797500", "110814.802500", "110815.805000", "110816.810000", "110817.815000", "110818.817500", "110819.822500", "110820.825000", "110821.830000", "110822.835000", "110823.837500", "110824.842500", "110825.845000", "110826.850000", "110827.855000", "110828.857500", "110829.862500", "110830.865000", "110831.870000", "110832.875000", "110833.877500", "110834.882500", "110835.887500", "110836.890000", "110837.895000", "110838.897500", "110839.902500", "110840.907500", "110841.910000", "110842.915000", "110843.917500", "110844.922500", "110845.927500", "110846.930000", "110847.935000", "110848.937500", "110849.942500", "110850.947500", "110851.950000", "110852.955000", "110853.957500", "110854.962500", "110855.967500", "110856.970000", "110857.975000", "110858.977500", "110859.982500", "110900.987500", "110901.990000", "110902.995000", "110904.000000", "110905.002500", "110906.007500", "110907.010000", "110908.015000", "110909.020000", "110910.022500", "110911.027500", "110912.030000", "110913.035000", "110914.040000", "110915.042500", "110916.047500", "110917.050000", "110918.055000", "110919.060000", "110920.062500", "110921.067500", "110922.070000", "110923.075000", "110924.080000", "110925.082500", "110926.087500", "110927.090000", "110928.095000", "110929.100000", "110930.102500", "110931.107500", "110932.110000", "110933.115000", "110934.120000", "110935.122500", "110936.127500", "110937.132500", "110938.135000", "110939.140000", "110940.142500", "110941.147500", "110942.152500", "110943.155000", "110944.160000", "110945.162500", "110946.167500", "110947.172500", "110948.175000", "110949.180000", "110950.182500", "110951.187500", "110952.192500", "110953.195000", "110954.200000", "110955.202500", "110956.207500", "110957.212500", "110958.215000", "110959.220000", "111000.222500", "111001.227500", "111002.232500", "111003.235000", "111004.240000", "111005.245000", "111006.247500", "111007.252500", "111008.255000", "111009.260000", "111010.265000", "111011.267500", "111012.272500", "111013.275000", "111014.280000", "111015.285000", "111016.287500", "111017.292500", "111018.295000", "111019.300000", "111020.305000", "111021.307500", "111022.312500", "111023.315000", "111024.320000", "111025.325000", "111026.327500", "111027.332500", "111028.335000", "111029.340000", "111030.345000", "111031.347500", "111032.352500", "111033.355000", "111034.360000", "111035.365000", "111036.367500", "111037.372500", "111038.377500", "111039.380000", "111040.385000", "111041.387500", "111042.392500", "111043.397500", "111044.400000", "111045.405000", "111046.407500", "111047.412500", "111048.417500", "111049.420000", "111050.425000", "111051.427500", "111052.432500", "111053.437500", "111054.440000", "111055.445000", "111056.447500", "111057.452500", "111058.457500", "111059.460000", "111100.465000", "111101.467500", "111102.472500", "111103.477500", "111104.480000", "111105.485000", "111106.487500", "111107.492500", "111108.497500", "111109.500000", "111110.505000", "111111.510000", "111112.512500", "111113.517500", "111114.520000", "111115.525000", "111116.530000", "111117.532500", "111118.537500", "111119.540000", "111120.545000", "111121.550000", "111122.552500", "111123.557500", "111124.560000", "111125.565000", "111126.570000", "111127.572500", "111128.577500", "111129.580000", "111130.585000", "111131.590000", "111132.592500", "111133.597500", "111134.600000", "111135.605000", "111136.610000", "111137.612500", "111138.617500", "111139.622500", "111140.625000", "111141.630000", "111142.632500", "111143.637500", "111144.642500", "111145.645000", "111146.650000", "111147.652500", "111148.657500", "111149.662500", "111150.665000", "111151.670000", "111152.672500", "111153.677500", "111154.682500", "111155.685000", "111156.690000", "111157.692500", "111158.697500", "111159.702500", "111200.705000", "111201.710000", "111202.712500", "111203.717500", "111204.722500", "111205.725000", "111206.730000", "111207.732500", "111208.737500", "111209.742500", "111210.745000", "111211.750000", "111212.755000", "111213.757500", "111214.762500", "111215.765000", "111216.770000", "111217.775000", "111218.777500", "111219.782500", "111220.785000", "111221.790000", "111222.795000", "111223.797500", "111224.802500", "111225.805000", "111226.810000", "111227.815000", "111228.817500", "111229.822500", "111230.825000", "111231.830000", "111232.835000", "111233.837500", "111234.842500", "111235.845000"],
      "ContentTime": ["110741.562000", "110741.578000", "110741.578000", "110741.578000", "110741.578000", "110741.578000", "110741.578000", "110741.578000", "110741.593000", "110741.593000", "110741.593000", "110741.593000", "110741.593000", "110741.593000", "110741.593000", "110741.609000", "110741.609000", "110741.609000", "110741.609000", "110741.609000", "110741.609000", "110741.609000", "110741.609000", "110741.625000", "110741.625000", "110741.640000", "110741.640000", "110741.640000", "110741.640000", "110741.640000", "110741.640000", "110741.656000", "110741.656000", "110741.656000", "110801.531000", "110801.546000", "110801.546000", "110801.546000", "110801.546000", "110801.546000", "110801.546000", "110801.546000", "110801.562000", "110801.562000", "110801.562000", "110801.562000", "110801.578000", "110801.578000", "110801.578000", "110801.578000", "110801.578000", "110801.578000", "110801.578000", "110801.578000", "110821.531000", "110821.546000", "110821.546000", "110821.546000", "110821.546000", "110821.546000", "110821.546000", "110821.546000", "110821.562000", "110821.562000", "110821.562000", "110821.562000", "110821.562000", "110821.578000", "110821.578000", "110821.578000", "110821.578000", "110821.578000", "110821.578000", "110821.578000", "110841.531000", "110841.546000", "110841.546000", "110841.546000", "110841.546000", "110841.546000", "110841.562000", "110841.562000", "110841.562000", "110841.562000", "110841.562000", "110841.562000", "110841.562000", "110841.578000", "110841.578000", "110841.578000", "110841.578000", "110841.578000", "110841.578000", "110841.578000", "110901.531000", "110901.546000", "110901.546000", "110901.546000", "110901.546000", "110901.546000", "110901.546000", "110901.546000", "110901.562000", "110901.562000", "110901.562000", "110901.562000", "110901.562000", "110901.562000", "110901.562000", "110901.578000", "110901.578000", "110901.578000", "110901.578000", "110901.578000", "110921.531000", "110921.546000", "110921.546000", "110921.546000", "110921.546000", "110921.546000", "110921.546000", "110921.546000", "110921.562000", "110921.562000", "110921.562000", "110921.562000", "110921.562000", "110921.562000", "110921.562000", "110921.578000", "110921.578000", "110921.578000", "110921.578000", "110921.578000", "110941.531000", "110941.546000", "110941.546000", "110941.546000", "110941.546000", "110941.546000", "110941.546000", "110941.546000", "110941.562000", "110941.562000", "110941.562000", "110941.562000", "110941.562000", "110941.562000", "110941.562000", "110941.578000", "110941.578000", "110941.578000", "110941.578000", "110941.578000", "111001.531000", "111001.546000", "111001.546000", "111001.562000", "111001.562000", "111001.562000", "111001.562000", "111001.562000", "111001.562000", "111001.562000", "111001.578000", "111001.578000", "111001.578000", "111001.578000", "111001.593000", "111001.593000", "111001.593000", "111001.593000", "111001.593000", "111001.593000", "111021.531000", "111021.546000", "111021.546000", "111021.546000", "111021.546000", "111021.546000", "111021.546000", "111021.546000", "111021.562000", "111021.562000", "111021.562000", "111021.562000", "111021.562000", "111021.562000", "111021.562000", "111021.562000", "111021.578000", "111021.578000", "111021.578000", "111021.578000", "111041.531000", "111041.546000", "111041.546000", "111041.546000", "111041.546000", "111041.546000", "111041.546000", "111041.546000", "111041.562000", "111041.562000", "111041.562000", "111041.562000", "111041.562000", "111041.562000", "111041.562000", "111041.578000", "111041.578000", "111041.578000", "111041.578000", "111041.578000", "111101.531000", "111101.546000", "111101.546000", "111101.546000", "111101.546000", "111101.546000", "111101.562000", "111101.562000", "111101.562000", "111101.562000", "111101.562000", "111101.562000", "111101.562000", "111101.578000", "111101.578000", "111101.578000", "111101.578000", "111101.578000", "111101.578000", "111101.578000", "111121.531000", "111121.546000", "111121.546000", "111121.546000", "111121.546000", "111121.546000", "111121.546000", "111121.546000", "111121.562000", "111121.562000", "111121.562000", "111121.562000", "111121.562000", "111121.562000", "111121.562000", "111121.578000", "111121.578000", "111121.578000", "111121.578000", "111121.578000", "111141.531000", "111141.546000", "111141.546000", "111141.546000", "111141.546000", "111141.546000", "111141.546000", "111141.546000", "111141.562000", "111141.562000", "111141.562000", "111141.562000", "111141.562000", "111141.562000", "111141.562000", "111141.578000", "111141.578000", "111141.578000", "111141.578000", "111141.578000", "111201.531000", "111201.546000", "111201.546000", "111201.546000", "111201.546000", "111201.546000", "111201.546000", "111201.546000", "111201.562000", "111201.562000", "111201.562000", "111201.562000", "111201.562000", "111201.562000", "111201.562000", "111201.578000", "111201.578000", "111201.578000", "111201.578000", "111201.578000", "111221.531000", "111221.546000", "111221.546000", "111221.546000", "111221.546000", "111221.546000", "111221.546000", "111221.546000", "111221.562000", "111221.562000", "111221.562000", "111221.562000", "111221.562000", "111221.562000", "111221.562000", "111221.578000", "111221.578000", "111221.578000", "111221.578000", "111221.578000", "111241.953000", "111241.953000", "111241.953000", "111241.953000", "111241.953000", "111241.968000", "111241.968000", "111241.968000", "111241.968000", "111241.968000", "111241.968000", "111241.968000", "111241.984000", "111241.984000", "111241.984000", "111241.984000"],
      "InstanceCreationTime": ["110741.562000", "110741.578000", "110741.578000", "110741.578000", "110741.578000", "110741.578000", "110741.578000", "110741.578000", "110741.593000", "110741.593000", "110741.593000", "110741.593000", "110741.593000", "110741.593000", "110741.593000", "110741.609000", "110741.609000", "110741.609000", "110741.609000", "110741.609000", "110741.609000", "110741.609000", "110741.609000", "110741.625000", "110741.625000", "110741.640000", "110741.640000", "110741.640000", "110741.640000", "110741.640000", "110741.640000", "110741.656000", "110741.656000", "110741.656000", "110801.531000", "110801.546000", "110801.546000", "110801.546000", "110801.546000", "110801.546000", "110801.546000", "110801.546000", "110801.562000", "110801.562000", "110801.562000", "110801.562000", "110801.578000", "110801.578000", "110801.578000", "110801.578000", "110801.578000", "110801.578000", "110801.578000", "110801.578000", "110821.531000", "110821.546000", "110821.546000", "110821.546000", "110821.546000", "110821.546000", "110821.546000", "110821.546000", "110821.562000", "110821.562000", "110821.562000", "110821.562000", "110821.562000", "110821.578000", "110821.578000", "110821.578000", "110821.578000", "110821.578000", "110821.578000", "110821.578000", "110841.531000", "110841.546000", "110841.546000", "110841.546000", "110841.546000", "110841.546000", "110841.562000", "110841.562000", "110841.562000", "110841.562000", "110841.562000", "110841.562000", "110841.562000", "110841.578000", "110841.578000", "110841.578000", "110841.578000", "110841.578000", "110841.578000", "110841.578000", "110901.531000", "110901.546000", "110901.546000", "110901.546000", "110901.546000", "110901.546000", "110901.546000", "110901.546000", "110901.562000", "110901.562000", "110901.562000", "110901.562000", "110901.562000", "110901.562000", "110901.562000", "110901.578000", "110901.578000", "110901.578000", "110901.578000", "110901.578000", "110921.531000", "110921.546000", "110921.546000", "110921.546000", "110921.546000", "110921.546000", "110921.546000", "110921.546000", "110921.562000", "110921.562000", "110921.562000", "110921.562000", "110921.562000", "110921.562000", "110921.562000", "110921.578000", "110921.578000", "110921.578000", "110921.578000", "110921.578000", "110941.531000", "110941.546000", "110941.546000", "110941.546000", "110941.546000", "110941.546000", "110941.546000", "110941.546000", "110941.562000", "110941.562000", "110941.562000", "110941.562000", "110941.562000", "110941.562000", "110941.562000", "110941.578000", "110941.578000", "110941.578000", "110941.578000", "110941.578000", "111001.531000", "111001.546000", "111001.546000", "111001.562000", "111001.562000", "111001.562000", "111001.562000", "111001.562000", "111001.562000", "111001.562000", "111001.578000", "111001.578000", "111001.578000", "111001.578000", "111001.593000", "111001.593000", "111001.593000", "111001.593000", "111001.593000", "111001.593000", "111021.531000", "111021.546000", "111021.546000", "111021.546000", "111021.546000", "111021.546000", "111021.546000", "111021.546000", "111021.562000", "111021.562000", "111021.562000", "111021.562000", "111021.562000", "111021.562000", "111021.562000", "111021.562000", "111021.578000", "111021.578000", "111021.578000", "111021.578000", "111041.531000", "111041.546000", "111041.546000", "111041.546000", "111041.546000", "111041.546000", "111041.546000", "111041.546000", "111041.562000", "111041.562000", "111041.562000", "111041.562000", "111041.562000", "111041.562000", "111041.562000", "111041.578000", "111041.578000", "111041.578000", "111041.578000", "111041.578000", "111101.531000", "111101.546000", "111101.546000", "111101.546000", "111101.546000", "111101.546000", "111101.562000", "111101.562000", "111101.562000", "111101.562000", "111101.562000", "111101.562000", "111101.562000", "111101.578000", "111101.578000", "111101.578000", "111101.578000", "111101.578000", "111101.578000", "111101.578000", "111121.531000", "111121.546000", "111121.546000", "111121.546000", "111121.546000", "111121.546000", "111121.546000", "111121.546000", "111121.562000", "111121.562000", "111121.562000", "111121.562000", "111121.562000", "111121.562000", "111121.562000", "111121.578000", "111121.578000", "111121.578000", "111121.578000", "111121.578000", "111141.531000", "111141.546000", "111141.546000", "111141.546000", "111141.546000", "111141.546000", "111141.546000", "111141.546000", "111141.562000", "111141.562000", "111141.562000", "111141.562000", "111141.562000", "111141.562000", "111141.562000", "111141.578000", "111141.578000", "111141.578000", "111141.578000", "111141.578000", "111201.531000", "111201.546000", "111201.546000", "111201.546000", "111201.546000", "111201.546000", "111201.546000", "111201.546000", "111201.562000", "111201.562000", "111201.562000", "111201.562000", "111201.562000", "111201.562000", "111201.562000", "111201.578000", "111201.578000", "111201.578000", "111201.578000", "111201.578000", "111221.531000", "111221.546000", "111221.546000", "111221.546000", "111221.546000", "111221.546000", "111221.546000", "111221.546000", "111221.562000", "111221.562000", "111221.562000", "111221.562000", "111221.562000", "111221.562000", "111221.562000", "111221.578000", "111221.578000", "111221.578000", "111221.578000", "111221.578000", "111241.953000", "111241.953000", "111241.953000", "111241.953000", "111241.953000", "111241.968000", "111241.968000", "111241.968000", "111241.968000", "111241.968000", "111241.968000", "111241.968000", "111241.984000", "111241.984000", "111241.984000", "111241.984000"],
      "InstanceNumber": [1, 2, 3, 4, 5, 6, 7, 8, 9, 10, 11, 12, 13, 14, 15, 16, 17, 18, 19, 20, 21, 22, 23, 24, 25, 26, 27, 28, 29, 30, 31, 32, 33, 34, 35, 36, 37, 38, 39, 40, 41, 42, 43, 44, 45, 46, 47, 48, 49, 50, 51, 52, 53, 54, 55, 56, 57, 58, 59, 60, 61, 62, 63, 64, 65, 66, 67, 68, 69, 70, 71, 72, 73, 74, 75, 76, 77, 78, 79, 80, 81, 82, 83, 84, 85, 86, 87, 88, 89, 90, 91, 92, 93, 94, 95, 96, 97, 98, 99, 100, 101, 102, 103, 104, 105, 106, 107, 108, 109, 110, 111, 112, 113, 114, 115, 116, 117, 118, 119, 120, 121, 122, 123, 124, 125, 126, 127, 128, 129, 130, 131, 132, 133, 134, 135, 136, 137, 138, 139, 140, 141, 142, 143, 144, 145, 146, 147, 148, 149, 150, 151, 152, 153, 154, 155, 156, 157, 158, 159, 160, 161, 162, 163, 164, 165, 166, 167, 168, 169, 170, 171, 172, 173, 174, 175, 176, 177, 178, 179, 180, 181, 182, 183, 184, 185, 186, 187, 188, 189, 190, 191, 192, 193, 194, 195, 196, 197, 198, 199, 200, 201, 202, 203, 204, 205, 206, 207, 208, 209, 210, 211, 212, 213, 214, 215, 216, 217, 218, 219, 220, 221, 222, 223, 224, 225, 226, 227, 228, 229, 230, 231, 232, 233, 234, 235, 236, 237, 238, 239, 240, 241, 242, 243, 244, 245, 246, 247, 248, 249, 250, 251, 252, 253, 254, 255, 256, 257, 258, 259, 260, 261, 262, 263, 264, 265, 266, 267, 268, 269, 270, 271, 272, 273, 274, 275, 276, 277, 278, 279, 280, 281, 282, 283, 284, 285, 286, 287, 288, 289, 290, 291, 292, 293, 294, 295, 296, 297, 298, 299, 300, 301, 302, 303, 304, 305, 306, 307, 308, 309, 310, 311, 312, 313, 314, 315, 316, 317, 318, 319, 320, 321, 322, 323, 324, 325, 326, 327, 328, 329, 330],
      "LargestImagePixelValue": [2620, 2597, 2596, 2555, 2530, 2569, 2566, 2540, 2542, 2575, 2587, 2551, 2498, 2565, 2532, 2576, 2607, 2500, 2579, 2559, 2534, 2602, 2571, 2527, 2561, 2550, 2522, 2519, 2542, 2549, 2531, 2545, 2549, 2576, 2574, 2545, 2590, 2533, 2512, 2597, 2592, 2524, 2523, 2534, 2506, 2587, 2564, 2535, 2610, 2588, 2564, 2611, 2595, 2595, 2589, 2644, 2575, 2598, 2567, 2611, 2581, 2574, 2554, 2523, 2575, 2607, 2556, 2567, 2558, 2582, 2529, 2566, 2526, 2532, 2528, 2521, 2564, 2527, 2548, 2621, 2566, 2578, 2373, 2558, 2564, 2566, 2558, 2517, 2508, 2512, 2492, 2551, 2584, 2543, 2547, 2570, 2534, 2624, 2571, 2616, 2511, 2501, 2512, 2515, 2524, 2563, 2519, 2573, 2583, 2588, 2562, 2532, 2559, 2520, 2552, 2540, 2565, 2596, 2567, 2534, 2577, 2544, 2585, 2581, 2563, 2531, 2536, 2474, 2549, 2519, 2561, 2507, 2500, 2557, 2497, 2528, 2538, 2513, 2557, 2546, 2563, 2544, 2535, 2578, 2542, 2545, 2518, 2519, 2533, 2517, 2517, 2530, 2560, 2579, 2594, 2529, 2534, 2520, 2541, 2523, 2522, 2546, 2507, 2504, 2632, 2448, 2472, 2394, 2362, 2347, 2406, 2350, 2382, 2417, 2385, 2488, 2463, 2478, 2461, 2497, 2503, 2520, 2503, 2488, 2505, 2507, 2521, 2549, 2528, 2535, 2535, 2495, 2553, 2517, 2522, 2546, 2497, 2502, 2519, 2537, 2491, 2512, 2497, 2525, 2485, 2498, 2484, 2549, 2524, 2527, 2519, 2459, 2491, 2497, 2521, 2510, 2486, 2505, 2486, 2508, 2532, 2478, 2474, 2504, 2474, 2511, 2498, 2557, 2528, 2516, 2512, 2561, 2510, 2560, 2460, 2512, 2461, 2495, 2460, 2541, 2484, 2539, 2390, 2352, 2354, 2348, 2393, 2385, 2411, 2436, 2440, 2464, 2446, 2420, 2425, 2469, 2451, 2472, 2519, 2519, 2485, 2472, 2475, 2502, 2487, 2491, 2524, 2440, 2462, 2430, 2448, 2511, 2455, 2477, 2488, 2490, 2469, 2447, 2434, 2491, 2472, 2453, 2467, 2438, 2459, 2470, 2464, 2481, 2514, 2549, 2455, 2459, 2441, 2453, 2472, 2472, 2483, 2476, 2494, 2517, 2510, 2521, 2517, 2482, 2494, 2491, 2475, 2484, 2452, 2497, 2452, 2451, 2460, 2469, 2529, 2488, 2353, 2360, 2355, 2343, 2362, 2367, 2390, 2413, 2432, 2416, 2364, 2418, 2416, 2393],
      "WindowCenter": [422.0, 422.0, 421.0, 421.0, 421.0, 421.0, 421.0, 421.0, 420.0, 421.0, 421.0, 421.0, 420.0, 421.0, 420.0, 421.0, 421.0, 420.0, 421.0, 420.0, 419.0, 420.0, 420.0, 419.0, 419.0, 420.0, 419.0, 420.0, 420.0, 420.0, 420.0, 420.0, 419.0, 420.0, 419.0, 419.0, 419.0, 419.0, 419.0, 419.0, 420.0, 419.0, 420.0, 419.0, 419.0, 419.0, 420.0, 419.0, 420.0, 421.0, 421.0, 421.0, 421.0, 420.0, 420.0, 420.0, 420.0, 420.0, 421.0, 421.0, 421.0, 421.0, 421.0, 421.0, 422.0, 423.0, 422.0, 422.0, 423.0, 423.0, 422.0, 422.0, 421.0, 422.0, 421.0, 422.0, 421.0, 421.0, 421.0, 422.0, 423.0, 422.0, 419.0, 420.0, 420.0, 420.0, 421.0, 420.0, 420.0, 420.0, 420.0, 420.0, 422.0, 421.0, 421.0, 421.0, 420.0, 421.0, 420.0, 421.0, 420.0, 420.0, 420.0, 419.0, 418.0, 419.0, 418.0, 419.0, 419.0, 419.0, 420.0, 420.0, 420.0, 421.0, 421.0, 420.0, 420.0, 421.0, 419.0, 419.0, 418.0, 419.0, 420.0, 421.0, 422.0, 422.0, 421.0, 421.0, 420.0, 420.0, 422.0, 421.0, 421.0, 422.0, 421.0, 421.0, 422.0, 421.0, 421.0, 422.0, 420.0, 420.0, 420.0, 420.0, 420.0, 420.0, 420.0, 420.0, 421.0, 420.0, 420.0, 420.0, 420.0, 420.0, 420.0, 421.0, 421.0, 422.0, 423.0, 422.0, 422.0, 422.0, 422.0, 422.0, 423.0, 423.0, 423.0, 422.0, 421.0, 420.0, 420.0, 420.0, 420.0, 421.0, 421.0, 422.0, 422.0, 421.0, 421.0, 421.0, 421.0, 421.0, 421.0, 420.0, 421.0, 421.0, 421.0, 421.0, 421.0, 421.0, 422.0, 422.0, 421.0, 421.0, 421.0, 421.0, 421.0, 421.0, 421.0, 421.0, 421.0, 421.0, 420.0, 420.0, 420.0, 420.0, 421.0, 421.0, 421.0, 421.0, 421.0, 421.0, 421.0, 421.0, 421.0, 421.0, 421.0, 421.0, 421.0, 421.0, 421.0, 420.0, 419.0, 419.0, 419.0, 420.0, 419.0, 420.0, 420.0, 420.0, 421.0, 421.0, 421.0, 421.0, 421.0, 421.0, 420.0, 420.0, 419.0, 420.0, 420.0, 422.0, 421.0, 421.0, 421.0, 421.0, 421.0, 420.0, 420.0, 420.0, 420.0, 419.0, 419.0, 420.0, 419.0, 420.0, 420.0, 420.0, 420.0, 420.0, 420.0, 420.0, 421.0, 421.0, 421.0, 421.0, 420.0, 419.0, 419.0, 418.0, 418.0, 420.0, 420.0, 420.0, 420.0, 420.0, 419.0, 419.0, 419.0, 419.0, 419.0, 419.0, 418.0, 420.0, 420.0, 420.0, 420.0, 420.0, 420.0, 420.0, 420.0, 419.0, 419.0, 419.0, 419.0, 419.0, 419.0, 419.0, 420.0, 420.0, 420.0, 421.0, 420.0, 420.0, 420.0, 419.0, 418.0, 419.0, 418.0, 418.0, 418.0, 418.0, 418.0, 419.0, 420.0, 419.0, 419.0, 420.0, 419.0, 419.0, 419.0, 418.0, 418.0, 418.0, 417.0, 417.0, 418.0, 417.0, 418.0, 418.0],
