{
  "AcquisitionMatrixPE": 104,
  "AcquisitionNumber": 1,
  "AcquisitionTime": "11:19:54.292500",
  "BandwidthPerPixelPhaseEncode": 43.054,
  "BaseResolution": 104,
  "CoilString": "C:E1_2",
  "ConversionSoftware": "dcm2niix",
  "ConversionSoftwareVersion": "v1.0.20191031",
  "DerivedVendorReportedEchoSpacing": 0.000669999,
  "DeviceSerialNumber": "18932",
  "DwellTime": 2.8e-06,
  "EchoTime": 0.02,
  "EffectiveEchoSpacing": 0.000223333,
  "FlipAngle": 30,
  "ImageComments": "Unaliased_MB2_PE2",
  "ImageOrientationPatientDICOM": [1, 0, 0, 0, 0.972776, -0.231748],
  "ImageType": [
    "ORIGINAL",
    "PRIMARY",
    "M",
    "MB",
    "ND",
    "MOSAIC"
],
  "ImagingFrequency": 297.229,
  "InPlanePhaseEncodingDirectionDICOM": "COL",
  "InstitutionAddress": "Richmond_Street_North_1151_London_409EF2_Ontario_CA_N6A_5B7",
  "InstitutionName": "Robarts_Reserch_Institute",
  "InstitutionalDepartmentName": "Department",
  "MRAcquisitionType": "2D",
  "MagneticFieldStrength": 6.98,
  "Manufacturer": "Siemens",
  "ManufacturersModelName": "Investigational_Device_7T",
  "Modality": "MR",
  "MultibandAccelerationFactor": 2,
  "ParallelReductionFactorInPlane": 3,
  "PartialFourier": 0.875,
  "PatientPosition": "HFS",
  "PercentPhaseFOV": 100,
  "PhaseEncodingDirection": "j-",
  "PhaseEncodingSteps": 91,
  "PhaseResolution": 1,
  "PixelBandwidth": 1717,
  "ProcedureStepDescription": "Diedrichsen_SeqRep4",
  "ProtocolName": "mbep2d_bold_mb2_p3_AP_2iso",
  "PulseSequenceDetails": "%CustomerSeq%_cmrr_mbep2d_bold",
  "ReceiveCoilName": "CFMM_8Tx32Rx",
  "ReconMatrixPE": 104,
  "RefLinesPE": 36,
  "RepetitionTime": 1,
  "ScanOptions": "PFP_FS",
  "ScanningSequence": "EP",
  "SequenceName": "epfid2d1_104",
  "SequenceVariant": "SK_SS",
  "SeriesDescription": "mbep2d_bold_mb2_p3_AP_2iso",
  "SeriesNumber": 19,
  "ShimSetting": [-42, 2071, 3, 1492, 24, 2, 67, -200],
  "SliceThickness": 2,
  "SliceTiming": [0, 0.2275, 0.455, 0.685, 0.9125, 0.1375, 0.365, 0.5925, 0.82, 0.045, 0.2725, 0.5025, 0.73, 0.9575, 0.1825, 0.41, 0.6375, 0.8675, 0.09, 0.32, 0.5475, 0.775, 0, 0.2275, 0.455, 0.685, 0.9125, 0.1375, 0.365, 0.5925, 0.82, 0.045, 0.2725, 0.5025, 0.73, 0.9575, 0.1825, 0.41, 0.6375, 0.8675, 0.09, 0.32, 0.5475, 0.775],
  "SoftwareVersions": "syngo_MR_B17",
  "SpacingBetweenSlices": 2,
  "StationName": "MASTER",
  "TaskName": "dsp",
  "TotalReadoutTime": 0.0230033,
  "TxRefAmp": 120,
  "dcmmeta_affine": [
    [-2.0, 0.0, 0.0, 105.4527816772461],
    [0.0, 1.9455517530441284, -0.46349579095840454, -109.59912872314453],
    [0.0, 0.46349579095840454, 1.9455517530441284, -53.16842269897461],
    [0.0, 0.0, 0.0, 1.0]
],
  "dcmmeta_reorient_transform": [
    [0.0, -1.0, 0.0, 103.0],
    [1.0, 0.0, 0.0, 0.0],
    [0.0, 0.0, 1.0, 0.0],
    [0.0, 0.0, 0.0, 1.0]
],
  "dcmmeta_shape": [104, 104, 44, 330],
  "dcmmeta_slice_dim": 2,
  "dcmmeta_version": 0.6,
  "global": {
    "const": {
      "AcquisitionMatrix": [104, 0, 0, 104],
      "AngioFlag": "N",
      "BitsAllocated": 16,
      "BitsStored": 12,
      "Columns": 728,
      "EchoNumbers": 1,
      "EchoTime": 20.0,
      "EchoTrainLength": 1,
      "FlipAngle": 30.0,
      "HighBit": 11,
      "ImageOrientationPatient": [1.0, 0.0, 0.0, 0.0, 0.97277587948169, -0.2317478981536],
      "ImagePositionPatient": [-729.45278453827, -697.80484939506, 139.18233184008],
      "ImageType": [
        "ORIGINAL",
        "PRIMARY",
        "M",
        "MB",
        "ND",
        "MOSAIC"
],
      "ImagedNucleus": "1H",
      "ImagingFrequency": 297.228947,
      "InPlanePhaseEncodingDirection": "COL",
      "MRAcquisitionType": "2D",
      "MagneticFieldStrength": 6.98,
      "Manufacturer": "SIEMENS",
      "ManufacturerModelName": "Investigational_Device_7T",
      "Modality": "MR",
      "NumberOfAverages": 1.0,
      "NumberOfPhaseEncodingSteps": 91,
      "PercentPhaseFieldOfView": 100.0,
      "PercentSampling": 100.0,
      "PerformedProcedureStepStartTime": "103843.453000",
      "PhotometricInterpretation": "MONOCHROME2",
      "PixelBandwidth": 1717.0,
      "PixelRepresentation": 0,
      "PixelSpacing": [2.0, 2.0],
      "ProtocolName": "mbep2d_bold_mb2_p3_AP 2iso",
      "RepetitionTime": 1000.0,
      "Rows": 728,
      "SAR": 0.0,
      "SamplesPerPixel": 1,
      "ScanOptions": [
        "PFP",
        "FS"
],
      "ScanningSequence": "EP",
      "SequenceName": "epfid2d1_104",
      "SequenceVariant": [
        "SK",
        "SS"
],
      "SeriesDescription": "mbep2d_bold_mb2_p3_AP 2iso",
      "SeriesNumber": 19,
      "SeriesTime": "112023.687000",
      "SliceLocation": -26.321591904653,
      "SliceThickness": 2.0,
      "SmallestImagePixelValue": 0,
      "SoftwareVersions": "syngo MR B17",
      "SpacingBetweenSlices": 1.9999999621195,
      "SpecificCharacterSet": "ISO_IR 100",
      "StudyID": "1",
      "StudyTime": "103843.390000",
      "TransmitCoilName": "CFMM_8Tx32Rx",
      "VariableFlipAngleFlag": "N",
      "WindowCenterWidthExplanation": "Algo1",
      "dBdt": 0.0},
    "slices": {}
  },
  "time": {
    "samples": {
      "AcquisitionNumber": [1, 2, 3, 4, 5, 6, 7, 8, 9, 10, 11, 12, 13, 14, 15, 16, 17, 18, 19, 20, 21, 22, 23, 24, 25, 26, 27, 28, 29, 30, 31, 32, 33, 34, 35, 36, 37, 38, 39, 40, 41, 42, 43, 44, 45, 46, 47, 48, 49, 50, 51, 52, 53, 54, 55, 56, 57, 58, 59, 60, 61, 62, 63, 64, 65, 66, 67, 68, 69, 70, 71, 72, 73, 74, 75, 76, 77, 78, 79, 80, 81, 82, 83, 84, 85, 86, 87, 88, 89, 90, 91, 92, 93, 94, 95, 96, 97, 98, 99, 100, 101, 102, 103, 104, 105, 106, 107, 108, 109, 110, 111, 112, 113, 114, 115, 116, 117, 118, 119, 120, 121, 122, 123, 124, 125, 126, 127, 128, 129, 130, 131, 132, 133, 134, 135, 136, 137, 138, 139, 140, 141, 142, 143, 144, 145, 146, 147, 148, 149, 150, 151, 152, 153, 154, 155, 156, 157, 158, 159, 160, 161, 162, 163, 164, 165, 166, 167, 168, 169, 170, 171, 172, 173, 174, 175, 176, 177, 178, 179, 180, 181, 182, 183, 184, 185, 186, 187, 188, 189, 190, 191, 192, 193, 194, 195, 196, 197, 198, 199, 200, 201, 202, 203, 204, 205, 206, 207, 208, 209, 210, 211, 212, 213, 214, 215, 216, 217, 218, 219, 220, 221, 222, 223, 224, 225, 226, 227, 228, 229, 230, 231, 232, 233, 234, 235, 236, 237, 238, 239, 240, 241, 242, 243, 244, 245, 246, 247, 248, 249, 250, 251, 252, 253, 254, 255, 256, 257, 258, 259, 260, 261, 262, 263, 264, 265, 266, 267, 268, 269, 270, 271, 272, 273, 274, 275, 276, 277, 278, 279, 280, 281, 282, 283, 284, 285, 286, 287, 288, 289, 290, 291, 292, 293, 294, 295, 296, 297, 298, 299, 300, 301, 302, 303, 304, 305, 306, 307, 308, 309, 310, 311, 312, 313, 314, 315, 316, 317, 318, 319, 320, 321, 322, 323, 324, 325, 326, 327, 328, 329, 330],
      "AcquisitionTime": ["111954.292500", "111955.297500", "111956.300000", "111957.305000", "111958.307500", "111959.312500", "112000.317500", "112001.320000", "112002.325000", "112003.327500", "112004.332500", "112005.337500", "112006.340000", "112007.345000", "112008.347500", "112009.352500", "112010.357500", "112011.360000", "112012.365000", "112013.367500", "112014.372500", "112015.377500", "112016.380000", "112017.385000", "112018.387500", "112019.392500", "112020.397500", "112021.400000", "112022.405000", "112023.410000", "112024.412500", "112025.417500", "112026.420000", "112027.425000", "112028.430000", "112029.432500", "112030.437500", "112031.440000", "112032.445000", "112033.450000", "112034.452500", "112035.457500", "112036.460000", "112037.465000", "112038.470000", "112039.472500", "112040.477500", "112041.480000", "112042.485000", "112043.490000", "112044.492500", "112045.497500", "112046.500000", "112047.505000", "112048.510000", "112049.512500", "112050.517500", "112051.520000", "112052.525000", "112053.530000", "112054.532500", "112055.537500", "112056.542500", "112057.545000", "112058.550000", "112059.552500", "112100.557500", "112101.562500", "112102.565000", "112103.570000", "112104.572500", "112105.577500", "112106.582500", "112107.585000", "112108.590000", "112109.592500", "112110.597500", "112111.602500", "112112.605000", "112113.610000", "112114.612500", "112115.617500", "112116.622500", "112117.625000", "112118.630000", "112119.632500", "112120.637500", "112121.642500", "112122.645000", "112123.650000", "112124.652500", "112125.657500", "112126.662500", "112127.665000", "112128.670000", "112129.675000", "112130.677500", "112131.682500", "112132.685000", "112133.690000", "112134.695000", "112135.697500", "112136.702500", "112137.705000", "112138.710000", "112139.715000", "112140.717500", "112141.722500", "112142.725000", "112143.730000", "112144.735000", "112145.737500", "112146.742500", "112147.745000", "112148.750000", "112149.755000", "112150.757500", "112151.762500", "112152.765000", "112153.770000", "112154.775000", "112155.777500", "112156.782500", "112157.787500", "112158.790000", "112159.795000", "112200.797500", "112201.802500", "112202.807500", "112203.810000", "112204.815000", "112205.817500", "112206.822500", "112207.827500", "112208.830000", "112209.835000", "112210.837500", "112211.842500", "112212.847500", "112213.850000", "112214.855000", "112215.857500", "112216.862500", "112217.867500", "112218.870000", "112219.875000", "112220.877500", "112221.882500", "112222.887500", "112223.890000", "112224.895000", "112225.897500", "112226.902500", "112227.907500", "112228.910000", "112229.915000", "112230.920000", "112231.922500", "112232.927500", "112233.930000", "112234.935000", "112235.940000", "112236.942500", "112237.947500", "112238.950000", "112239.955000", "112240.960000", "112241.962500", "112242.967500", "112243.970000", "112244.975000", "112245.980000", "112246.982500", "112247.987500", "112248.990000", "112249.995000", "112251.000000", "112252.002500", "112253.007500", "112254.010000", "112255.015000", "112256.020000", "112257.022500", "112258.027500", "112259.030000", "112300.035000", "112301.040000", "112302.042500", "112303.047500", "112304.052500", "112305.055000", "112306.060000", "112307.062500", "112308.067500", "112309.072500", "112310.075000", "112311.080000", "112312.082500", "112313.087500", "112314.092500", "112315.095000", "112316.100000", "112317.102500", "112318.107500", "112319.112500", "112320.115000", "112321.120000", "112322.122500", "112323.127500", "112324.132500", "112325.135000", "112326.140000", "112327.142500", "112328.147500", "112329.152500", "112330.155000", "112331.160000", "112332.165000", "112333.167500", "112334.172500", "112335.175000", "112336.180000", "112337.185000", "112338.187500", "112339.192500", "112340.195000", "112341.200000", "112342.205000", "112343.207500", "112344.212500", "112345.215000", "112346.220000", "112347.225000", "112348.227500", "112349.232500", "112350.235000", "112351.240000", "112352.245000", "112353.247500", "112354.252500", "112355.255000", "112356.260000", "112357.265000", "112358.267500", "112359.272500", "112400.275000", "112401.280000", "112402.285000", "112403.287500", "112404.292500", "112405.297500", "112406.300000", "112407.305000", "112408.307500", "112409.312500", "112410.317500", "112411.320000", "112412.325000", "112413.327500", "112414.332500", "112415.337500", "112416.340000", "112417.345000", "112418.347500", "112419.352500", "112420.357500", "112421.360000", "112422.365000", "112423.367500", "112424.372500", "112425.377500", "112426.380000", "112427.385000", "112428.387500", "112429.392500", "112430.397500", "112431.400000", "112432.405000", "112433.410000", "112434.412500", "112435.417500", "112436.420000", "112437.425000", "112438.430000", "112439.432500", "112440.437500", "112441.440000", "112442.445000", "112443.450000", "112444.452500", "112445.457500", "112446.460000", "112447.465000", "112448.470000", "112449.472500", "112450.477500", "112451.480000", "112452.485000", "112453.490000", "112454.492500", "112455.497500", "112456.500000", "112457.505000", "112458.510000", "112459.512500", "112500.517500", "112501.520000", "112502.525000", "112503.530000", "112504.532500", "112505.537500", "112506.542500", "112507.545000", "112508.550000", "112509.552500", "112510.557500", "112511.562500", "112512.565000", "112513.570000", "112514.572500", "112515.577500", "112516.582500", "112517.585000", "112518.590000", "112519.592500", "112520.597500", "112521.602500", "112522.605000", "112523.610000", "112524.612500"],
      "ContentTime": ["112023.687000", "112023.687000", "112023.687000", "112023.687000", "112023.687000", "112023.687000", "112023.703000", "112023.703000", "112023.703000", "112023.703000", "112023.703000", "112023.718000", "112023.718000", "112023.718000", "112023.718000", "112023.718000", "112023.718000", "112023.718000", "112023.734000", "112023.734000", "112023.734000", "112023.734000", "112023.734000", "112023.734000", "112023.750000", "112023.750000", "112023.750000", "112023.750000", "112043.640000", "112043.656000", "112043.656000", "112043.656000", "112043.656000", "112043.656000", "112043.671000", "112043.671000", "112043.671000", "112043.671000", "112043.671000", "112043.671000", "112043.671000", "112043.687000", "112043.687000", "112043.687000", "112043.687000", "112043.687000", "112043.687000", "112043.687000", "112103.640000", "112103.656000", "112103.656000", "112103.656000", "112103.656000", "112103.671000", "112103.671000", "112103.671000", "112103.671000", "112103.671000", "112103.671000", "112103.671000", "112103.687000", "112103.687000", "112103.687000", "112103.687000", "112103.687000", "112103.687000", "112103.703000", "112103.703000", "112123.640000", "112123.656000", "112123.656000", "112123.656000", "112123.656000", "112123.656000", "112123.656000", "112123.671000", "112123.671000", "112123.671000", "112123.687000", "112123.687000", "112123.687000", "112123.687000", "112123.687000", "112123.687000", "112123.687000", "112123.703000", "112123.703000", "112123.703000", "112143.640000", "112143.656000", "112143.656000", "112143.656000", "112143.656000", "112143.671000", "112143.671000", "112143.671000", "112143.671000", "112143.671000", "112143.671000", "112143.687000", "112143.687000", "112143.687000", "112143.687000", "112143.687000", "112143.687000", "112143.687000", "112143.703000", "112143.703000", "112203.640000", "112203.656000", "112203.656000", "112203.656000", "112203.656000", "112203.656000", "112203.656000", "112203.656000", "112203.671000", "112203.671000", "112203.671000", "112203.671000", "112203.671000", "112203.671000", "112203.671000", "112203.671000", "112203.687000", "112203.687000", "112203.687000", "112203.687000", "112223.640000", "112223.656000", "112223.656000", "112223.656000", "112223.656000", "112223.656000", "112223.671000", "112223.671000", "112223.671000", "112223.671000", "112223.671000", "112223.671000", "112223.671000", "112223.687000", "112223.687000", "112223.687000", "112223.687000", "112223.687000", "112223.687000", "112223.687000", "112243.640000", "112243.656000", "112243.656000", "112243.656000", "112243.656000", "112243.671000", "112243.671000", "112243.671000", "112243.671000", "112243.671000", "112243.671000", "112243.671000", "112243.687000", "112243.687000", "112243.687000", "112243.687000", "112243.687000", "112243.687000", "112243.687000", "112243.687000", "112303.640000", "112303.656000", "112303.656000", "112303.656000", "112303.656000", "112303.656000", "112303.656000", "112303.656000", "112303.671000", "112303.671000", "112303.671000", "112303.671000", "112303.671000", "112303.671000", "112303.671000", "112303.671000", "112303.687000", "112303.687000", "112303.687000", "112303.687000", "112323.640000", "112323.656000", "112323.656000", "112323.656000", "112323.656000", "112323.656000", "112323.656000", "112323.656000", "112323.671000", "112323.671000", "112323.671000", "112323.671000", "112323.671000", "112323.687000", "112323.687000", "112323.687000", "112323.687000", "112323.687000", "112323.687000", "112323.703000", "112343.640000", "112343.656000", "112343.656000", "112343.656000", "112343.656000", "112343.656000", "112343.656000", "112343.656000", "112343.671000", "112343.671000", "112343.671000", "112343.671000", "112343.671000", "112343.671000", "112343.671000", "112343.687000", "112343.687000", "112343.687000", "112343.687000", "112343.687000", "112403.640000", "112403.656000", "112403.656000", "112403.656000", "112403.656000", "112403.656000", "112403.656000", "112403.656000", "112403.671000", "112403.671000", "112403.671000", "112403.671000", "112403.671000", "112403.671000", "112403.671000", "112403.671000", "112403.687000", "112403.687000", "112403.687000", "112403.687000", "112423.640000", "112423.656000", "112423.656000", "112423.656000", "112423.656000", "112423.656000", "112423.656000", "112423.656000", "112423.671000", "112423.671000", "112423.671000", "112423.671000", "112423.671000", "112423.671000", "112423.671000", "112423.687000", "112423.687000", "112423.687000", "112423.687000", "112423.687000", "112443.640000", "112443.656000", "112443.656000", "112443.671000", "112443.671000", "112443.671000", "112443.671000", "112443.671000", "112443.671000", "112443.687000", "112443.687000", "112443.687000", "112443.687000", "112443.687000", "112443.687000", "112443.687000", "112443.703000", "112443.703000", "112443.703000", "112443.703000", "112503.640000", "112503.656000", "112503.656000", "112503.656000", "112503.656000", "112503.656000", "112503.656000", "112503.656000", "112503.671000", "112503.671000", "112503.671000", "112503.671000", "112503.671000", "112503.687000", "112503.687000", "112503.687000", "112503.687000", "112503.687000", "112503.687000", "112503.687000", "112523.640000", "112523.656000", "112523.656000", "112523.656000", "112523.656000", "112523.656000", "112523.656000", "112523.656000", "112523.671000", "112523.671000", "112523.671000", "112523.671000", "112523.671000", "112523.671000", "112523.687000", "112523.687000", "112523.687000", "112523.687000", "112523.687000", "112523.687000", "112530.468000", "112530.484000"],
      "InstanceCreationTime": ["112023.687000", "112023.687000", "112023.687000", "112023.687000", "112023.687000", "112023.687000", "112023.703000", "112023.703000", "112023.703000", "112023.703000", "112023.703000", "112023.718000", "112023.718000", "112023.718000", "112023.718000", "112023.718000", "112023.718000", "112023.718000", "112023.734000", "112023.734000", "112023.734000", "112023.734000", "112023.734000", "112023.734000", "112023.750000", "112023.750000", "112023.750000", "112023.750000", "112043.640000", "112043.656000", "112043.656000", "112043.656000", "112043.656000", "112043.656000", "112043.671000", "112043.671000", "112043.671000", "112043.671000", "112043.671000", "112043.671000", "112043.671000", "112043.687000", "112043.687000", "112043.687000", "112043.687000", "112043.687000", "112043.687000", "112043.687000", "112103.640000", "112103.656000", "112103.656000", "112103.656000", "112103.656000", "112103.671000", "112103.671000", "112103.671000", "112103.671000", "112103.671000", "112103.671000", "112103.671000", "112103.687000", "112103.687000", "112103.687000", "112103.687000", "112103.687000", "112103.687000", "112103.703000", "112103.703000", "112123.640000", "112123.656000", "112123.656000", "112123.656000", "112123.656000", "112123.656000", "112123.656000", "112123.671000", "112123.671000", "112123.671000", "112123.687000", "112123.687000", "112123.687000", "112123.687000", "112123.687000", "112123.687000", "112123.687000", "112123.703000", "112123.703000", "112123.703000", "112143.640000", "112143.656000", "112143.656000", "112143.656000", "112143.656000", "112143.671000", "112143.671000", "112143.671000", "112143.671000", "112143.671000", "112143.671000", "112143.687000", "112143.687000", "112143.687000", "112143.687000", "112143.687000", "112143.687000", "112143.687000", "112143.703000", "112143.703000", "112203.640000", "112203.656000", "112203.656000", "112203.656000", "112203.656000", "112203.656000", "112203.656000", "112203.656000", "112203.671000", "112203.671000", "112203.671000", "112203.671000", "112203.671000", "112203.671000", "112203.671000", "112203.671000", "112203.687000", "112203.687000", "112203.687000", "112203.687000", "112223.640000", "112223.656000", "112223.656000", "112223.656000", "112223.656000", "112223.656000", "112223.671000", "112223.671000", "112223.671000", "112223.671000", "112223.671000", "112223.671000", "112223.671000", "112223.687000", "112223.687000", "112223.687000", "112223.687000", "112223.687000", "112223.687000", "112223.687000", "112243.640000", "112243.656000", "112243.656000", "112243.656000", "112243.656000", "112243.671000", "112243.671000", "112243.671000", "112243.671000", "112243.671000", "112243.671000", "112243.671000", "112243.687000", "112243.687000", "112243.687000", "112243.687000", "112243.687000", "112243.687000", "112243.687000", "112243.687000", "112303.640000", "112303.656000", "112303.656000", "112303.656000", "112303.656000", "112303.656000", "112303.656000", "112303.656000", "112303.671000", "112303.671000", "112303.671000", "112303.671000", "112303.671000", "112303.671000", "112303.671000", "112303.671000", "112303.687000", "112303.687000", "112303.687000", "112303.687000", "112323.640000", "112323.656000", "112323.656000", "112323.656000", "112323.656000", "112323.656000", "112323.656000", "112323.656000", "112323.671000", "112323.671000", "112323.671000", "112323.671000", "112323.671000", "112323.687000", "112323.687000", "112323.687000", "112323.687000", "112323.687000", "112323.687000", "112323.703000", "112343.640000", "112343.656000", "112343.656000", "112343.656000", "112343.656000", "112343.656000", "112343.656000", "112343.656000", "112343.671000", "112343.671000", "112343.671000", "112343.671000", "112343.671000", "112343.671000", "112343.671000", "112343.687000", "112343.687000", "112343.687000", "112343.687000", "112343.687000", "112403.640000", "112403.656000", "112403.656000", "112403.656000", "112403.656000", "112403.656000", "112403.656000", "112403.656000", "112403.671000", "112403.671000", "112403.671000", "112403.671000", "112403.671000", "112403.671000", "112403.671000", "112403.671000", "112403.687000", "112403.687000", "112403.687000", "112403.687000", "112423.640000", "112423.656000", "112423.656000", "112423.656000", "112423.656000", "112423.656000", "112423.656000", "112423.656000", "112423.671000", "112423.671000", "112423.671000", "112423.671000", "112423.671000", "112423.671000", "112423.671000", "112423.687000", "112423.687000", "112423.687000", "112423.687000", "112423.687000", "112443.640000", "112443.656000", "112443.656000", "112443.671000", "112443.671000", "112443.671000", "112443.671000", "112443.671000", "112443.671000", "112443.687000", "112443.687000", "112443.687000", "112443.687000", "112443.687000", "112443.687000", "112443.687000", "112443.703000", "112443.703000", "112443.703000", "112443.703000", "112503.640000", "112503.656000", "112503.656000", "112503.656000", "112503.656000", "112503.656000", "112503.656000", "112503.656000", "112503.671000", "112503.671000", "112503.671000", "112503.671000", "112503.671000", "112503.687000", "112503.687000", "112503.687000", "112503.687000", "112503.687000", "112503.687000", "112503.687000", "112523.640000", "112523.656000", "112523.656000", "112523.656000", "112523.656000", "112523.656000", "112523.656000", "112523.656000", "112523.671000", "112523.671000", "112523.671000", "112523.671000", "112523.671000", "112523.671000", "112523.687000", "112523.687000", "112523.687000", "112523.687000", "112523.687000", "112523.687000", "112530.468000", "112530.484000"],
      "InstanceNumber": [1, 2, 3, 4, 5, 6, 7, 8, 9, 10, 11, 12, 13, 14, 15, 16, 17, 18, 19, 20, 21, 22, 23, 24, 25, 26, 27, 28, 29, 30, 31, 32, 33, 34, 35, 36, 37, 38, 39, 40, 41, 42, 43, 44, 45, 46, 47, 48, 49, 50, 51, 52, 53, 54, 55, 56, 57, 58, 59, 60, 61, 62, 63, 64, 65, 66, 67, 68, 69, 70, 71, 72, 73, 74, 75, 76, 77, 78, 79, 80, 81, 82, 83, 84, 85, 86, 87, 88, 89, 90, 91, 92, 93, 94, 95, 96, 97, 98, 99, 100, 101, 102, 103, 104, 105, 106, 107, 108, 109, 110, 111, 112, 113, 114, 115, 116, 117, 118, 119, 120, 121, 122, 123, 124, 125, 126, 127, 128, 129, 130, 131, 132, 133, 134, 135, 136, 137, 138, 139, 140, 141, 142, 143, 144, 145, 146, 147, 148, 149, 150, 151, 152, 153, 154, 155, 156, 157, 158, 159, 160, 161, 162, 163, 164, 165, 166, 167, 168, 169, 170, 171, 172, 173, 174, 175, 176, 177, 178, 179, 180, 181, 182, 183, 184, 185, 186, 187, 188, 189, 190, 191, 192, 193, 194, 195, 196, 197, 198, 199, 200, 201, 202, 203, 204, 205, 206, 207, 208, 209, 210, 211, 212, 213, 214, 215, 216, 217, 218, 219, 220, 221, 222, 223, 224, 225, 226, 227, 228, 229, 230, 231, 232, 233, 234, 235, 236, 237, 238, 239, 240, 241, 242, 243, 244, 245, 246, 247, 248, 249, 250, 251, 252, 253, 254, 255, 256, 257, 258, 259, 260, 261, 262, 263, 264, 265, 266, 267, 268, 269, 270, 271, 272, 273, 274, 275, 276, 277, 278, 279, 280, 281, 282, 283, 284, 285, 286, 287, 288, 289, 290, 291, 292, 293, 294, 295, 296, 297, 298, 299, 300, 301, 302, 303, 304, 305, 306, 307, 308, 309, 310, 311, 312, 313, 314, 315, 316, 317, 318, 319, 320, 321, 322, 323, 324, 325, 326, 327, 328, 329, 330],
      "LargestImagePixelValue": [2679, 2694, 2692, 2634, 2622, 2631, 2625, 2646, 2655, 2670, 2623, 2650, 2632, 2649, 2669, 2665, 2666, 2622, 2639, 2579, 2622, 2579, 2561, 2589, 2600, 2631, 2651, 2641, 2657, 2622, 2656, 2658, 2642, 2629, 2664, 2647, 2641, 2621, 2628, 2650, 2637, 2668, 2613, 2657, 2614, 2647, 2653, 2659, 2634, 2631, 2630, 2636, 2654, 2642, 2609, 2624, 2658, 2640, 2633, 2650, 2635, 2678, 2630, 2589, 2678, 2663, 2628, 2651, 2643, 2688, 2655, 2676, 2655, 2671, 2612, 2552, 2566, 2606, 2575, 2583, 2588, 2558, 2499, 2616, 2562, 2555, 2551, 2584, 2596, 2599, 2565, 2575, 2554, 2579, 2562, 2602, 2638, 2593, 2600, 2632, 2639, 2592, 2589, 2611, 2619, 2624, 2588, 2604, 2642, 2591, 2441, 2391, 2466, 2590, 2598, 2593, 2599, 2598, 2501, 2606, 2629, 2605, 2681, 2652, 2625, 2644, 2669, 2631, 2676, 2625, 2657, 2629, 2677, 2629, 2660, 2638, 2632, 2634, 2628, 2686, 2686, 2631, 2660, 2641, 2652, 2650, 2649, 2654, 2669, 2683, 2673, 2669, 2632, 2645, 2663, 2676, 2700, 2669, 2678, 2664, 2668, 2639, 2689, 2653, 2645, 2651, 2678, 2646, 2680, 2689, 2659, 2672, 2658, 2645, 2646, 2692, 2708, 2647, 2640, 2638, 2675, 2672, 2671, 2635, 2605, 2658, 2645, 2650, 2638, 2623, 2647, 2641, 2655, 2649, 2609, 2675, 2659, 2629, 2635, 2675, 2641, 2644, 2635, 2606, 2611, 2691, 2672, 2649, 2616, 2594, 2649, 2654, 2656, 2688, 2734, 2643, 2618, 2640, 2623, 2640, 2638, 2656, 2609, 2599, 2613, 2641, 2594, 2618, 2624, 2621, 2645, 2663, 2634, 2652, 2599, 2627, 2653, 2629, 2580, 2608, 2656, 2691, 2638, 2616, 2650, 2622, 2636, 2604, 2587, 2597, 2638, 2620, 2568, 2603, 2579, 2681, 2689, 2635, 2628, 2626, 2616, 2624, 2585, 2616, 2612, 2630, 2649, 2620, 2605, 2598, 2591, 2647, 2647, 2619, 2619, 2679, 2641, 2598, 2611, 2598, 2577, 2685, 2673, 2611, 2601, 2634, 2687, 2666, 2624, 2605, 2668, 2639, 2600, 2624, 2638, 2619, 2612, 2633, 2544, 2559, 2567, 2484, 2567, 2675, 2634, 2594, 2557, 2554, 2535, 2544, 2540, 2517, 2509, 2585, 2533, 2499, 2492, 2426, 2457, 2466, 2404, 2363, 2398, 2433, 2452, 2472, 2417, 2422, 2464, 2471],
      "WindowCenter": [425.0, 425.0, 423.0, 422.0, 422.0, 422.0, 422.0, 422.0, 422.0, 422.0, 421.0, 422.0, 422.0, 420.0, 420.0, 420.0, 419.0, 419.0, 420.0, 420.0, 421.0, 421.0, 422.0, 421.0, 421.0, 421.0, 420.0, 420.0, 420.0, 420.0, 420.0, 420.0, 420.0, 419.0, 419.0, 419.0, 420.0, 421.0, 421.0, 421.0, 421.0, 420.0, 419.0, 420.0, 420.0, 420.0, 421.0, 421.0, 421.0, 421.0, 421.0, 421.0, 420.0, 420.0, 420.0, 420.0, 420.0, 420.0, 419.0, 419.0, 419.0, 419.0, 419.0, 418.0, 419.0, 419.0, 419.0, 419.0, 419.0, 419.0, 419.0, 419.0, 419.0, 419.0, 419.0, 420.0, 420.0, 422.0, 421.0, 421.0, 421.0, 421.0, 419.0, 421.0, 422.0, 422.0, 423.0, 422.0, 421.0, 419.0, 419.0, 418.0, 420.0, 420.0, 420.0, 420.0, 420.0, 419.0, 418.0, 420.0, 420.0, 419.0, 419.0, 420.0, 420.0, 420.0, 419.0, 418.0, 419.0, 420.0, 419.0, 420.0, 421.0, 423.0, 423.0, 423.0, 422.0, 421.0, 419.0, 419.0, 420.0, 420.0, 421.0, 421.0, 421.0, 421.0, 421.0, 421.0, 421.0, 420.0, 420.0, 420.0, 420.0, 420.0, 420.0, 419.0, 420.0, 420.0, 420.0, 420.0, 421.0, 421.0, 421.0, 421.0, 421.0, 421.0, 420.0, 420.0, 420.0, 420.0, 420.0, 420.0, 420.0, 420.0, 420.0, 420.0, 420.0, 420.0, 420.0, 420.0, 420.0, 420.0, 421.0, 420.0, 420.0, 420.0, 420.0, 420.0, 422.0, 422.0, 422.0, 421.0, 420.0, 420.0, 420.0, 420.0, 419.0, 418.0, 418.0, 418.0, 420.0, 422.0, 423.0, 422.0, 421.0, 420.0, 418.0, 418.0, 418.0, 417.0, 417.0, 418.0, 419.0, 419.0, 419.0, 419.0, 419.0, 419.0, 419.0, 419.0, 419.0, 419.0, 417.0, 417.0, 417.0, 418.0, 419.0, 419.0, 419.0, 419.0, 420.0, 420.0, 420.0, 419.0, 420.0, 420.0, 420.0, 420.0, 421.0, 421.0, 420.0, 420.0, 420.0, 419.0, 419.0, 419.0, 418.0, 420.0, 421.0, 420.0, 421.0, 421.0, 420.0, 421.0, 420.0, 420.0, 420.0, 420.0, 420.0, 420.0, 420.0, 420.0, 419.0, 419.0, 419.0, 418.0, 418.0, 418.0, 418.0, 418.0, 418.0, 418.0, 418.0, 418.0, 418.0, 419.0, 419.0, 420.0, 420.0, 421.0, 421.0, 421.0, 420.0, 420.0, 420.0, 419.0, 419.0, 420.0, 420.0, 421.0, 420.0, 420.0, 419.0, 419.0, 420.0, 420.0, 420.0, 420.0, 420.0, 420.0, 419.0, 419.0, 419.0, 418.0, 419.0, 420.0, 419.0, 419.0, 420.0, 420.0, 419.0, 420.0, 419.0, 420.0, 420.0, 420.0, 421.0, 422.0, 422.0, 422.0, 422.0, 422.0, 422.0, 423.0, 423.0, 422.0, 421.0, 421.0, 420.0, 420.0, 420.0, 420.0, 420.0, 420.0, 420.0, 420.0, 419.0, 418.0, 418.0, 420.0, 419.0, 419.0, 419.0, 419.0, 418.0, 418.0, 418.0, 417.0, 418.0, 418.0],
