{
  "AcquisitionMatrixPE": 104,
  "AcquisitionNumber": 1,
  "AcquisitionTime": "11:42:59.347500",
  "BandwidthPerPixelPhaseEncode": 43.054,
  "BaseResolution": 104,
  "CoilString": "C:E1_2",
  "ConversionSoftware": "dcm2niix",
  "ConversionSoftwareVersion": "v1.0.20191031",
  "DerivedVendorReportedEchoSpacing": 0.000669999,
  "DeviceSerialNumber": "18932",
  "DwellTime": 2.8e-06,
  "EchoTime": 0.02,
  "EffectiveEchoSpacing": 0.000223333,
  "FlipAngle": 30,
  "ImageComments": "Unaliased_MB2_PE2",
  "ImageOrientationPatientDICOM": [1, 0, 0, 0, 0.972776, -0.231748],
  "ImageType": [
    "ORIGINAL",
    "PRIMARY",
    "M",
    "MB",
    "ND",
    "MOSAIC"
],
  "ImagingFrequency": 297.229,
  "InPlanePhaseEncodingDirectionDICOM": "COL",
  "InstitutionAddress": "Richmond_Street_North_1151_London_409EF2_Ontario_CA_N6A_5B7",
  "InstitutionName": "Robarts_Reserch_Institute",
  "InstitutionalDepartmentName": "Department",
  "MRAcquisitionType": "2D",
  "MagneticFieldStrength": 6.98,
  "Manufacturer": "Siemens",
  "ManufacturersModelName": "Investigational_Device_7T",
  "Modality": "MR",
  "MultibandAccelerationFactor": 2,
  "ParallelReductionFactorInPlane": 3,
  "PartialFourier": 0.875,
  "PatientPosition": "HFS",
  "PercentPhaseFOV": 100,
  "PhaseEncodingDirection": "j-",
  "PhaseEncodingSteps": 91,
  "PhaseResolution": 1,
  "PixelBandwidth": 1717,
  "ProcedureStepDescription": "Diedrichsen_SeqRep4",
  "ProtocolName": "mbep2d_bold_mb2_p3_AP_2iso",
  "PulseSequenceDetails": "%CustomerSeq%_cmrr_mbep2d_bold",
  "ReceiveCoilName": "CFMM_8Tx32Rx",
  "ReconMatrixPE": 104,
  "RefLinesPE": 36,
  "RepetitionTime": 1,
  "ScanOptions": "PFP_FS",
  "ScanningSequence": "EP",
  "SequenceName": "epfid2d1_104",
  "SequenceVariant": "SK_SS",
  "SeriesDescription": "mbep2d_bold_mb2_p3_AP_2iso",
  "SeriesNumber": 28,
  "ShimSetting": [-42, 2071, 3, 1492, 24, 2, 67, -200],
  "SliceThickness": 2,
  "SliceTiming": [0, 0.2275, 0.455, 0.6825, 0.9125, 0.135, 0.365, 0.5925, 0.82, 0.045, 0.2725, 0.5, 0.73, 0.9575, 0.1825, 0.41, 0.6375, 0.865, 0.09, 0.3175, 0.5475, 0.775, 0, 0.2275, 0.455, 0.6825, 0.9125, 0.135, 0.365, 0.5925, 0.82, 0.045, 0.2725, 0.5, 0.73, 0.9575, 0.1825, 0.41, 0.6375, 0.865, 0.09, 0.3175, 0.5475, 0.775],
  "SoftwareVersions": "syngo_MR_B17",
  "SpacingBetweenSlices": 2,
  "StationName": "MASTER",
  "TaskName": "dsp",
  "TotalReadoutTime": 0.0230033,
  "TxRefAmp": 120,
  "dcmmeta_affine": [
    [-2.0, 0.0, 0.0, 105.4527816772461],
    [0.0, 1.9455517530441284, -0.46349579095840454, -109.59912872314453],
    [0.0, 0.46349579095840454, 1.9455517530441284, -53.16842269897461],
    [0.0, 0.0, 0.0, 1.0]
],
  "dcmmeta_reorient_transform": [
    [0.0, -1.0, 0.0, 103.0],
    [1.0, 0.0, 0.0, 0.0],
    [0.0, 0.0, 1.0, 0.0],
    [0.0, 0.0, 0.0, 1.0]
],
  "dcmmeta_shape": [104, 104, 44, 330],
  "dcmmeta_slice_dim": 2,
  "dcmmeta_version": 0.6,
  "global": {
    "const": {
      "AcquisitionMatrix": [104, 0, 0, 104],
      "AngioFlag": "N",
      "BitsAllocated": 16,
      "BitsStored": 12,
      "Columns": 728,
      "EchoNumbers": 1,
      "EchoTime": 20.0,
      "EchoTrainLength": 1,
      "FlipAngle": 30.0,
      "HighBit": 11,
      "ImageOrientationPatient": [1.0, 0.0, 0.0, 0.0, 0.97277587948169, -0.2317478981536],
      "ImagePositionPatient": [-729.45278453827, -697.80484939506, 139.18233184008],
      "ImageType": [
        "ORIGINAL",
        "PRIMARY",
        "M",
        "MB",
        "ND",
        "MOSAIC"
],
      "ImagedNucleus": "1H",
      "ImagingFrequency": 297.228945,
      "InPlanePhaseEncodingDirection": "COL",
      "MRAcquisitionType": "2D",
      "MagneticFieldStrength": 6.98,
      "Manufacturer": "SIEMENS",
      "ManufacturerModelName": "Investigational_Device_7T",
      "Modality": "MR",
      "NumberOfAverages": 1.0,
      "NumberOfPhaseEncodingSteps": 91,
      "PercentPhaseFieldOfView": 100.0,
      "PercentSampling": 100.0,
      "PerformedProcedureStepStartTime": "103843.453000",
      "PhotometricInterpretation": "MONOCHROME2",
      "PixelBandwidth": 1717.0,
      "PixelRepresentation": 0,
      "PixelSpacing": [2.0, 2.0],
      "ProtocolName": "mbep2d_bold_mb2_p3_AP 2iso",
      "RepetitionTime": 1000.0,
      "Rows": 728,
      "SAR": 0.0,
      "SamplesPerPixel": 1,
      "ScanOptions": [
        "PFP",
        "FS"
],
      "ScanningSequence": "EP",
      "SequenceName": "epfid2d1_104",
      "SequenceVariant": [
        "SK",
        "SS"
],
      "SeriesDescription": "mbep2d_bold_mb2_p3_AP 2iso",
      "SeriesNumber": 28,
      "SeriesTime": "114323.687000",
      "SliceLocation": -26.321591904653,
      "SliceThickness": 2.0,
      "SmallestImagePixelValue": 0,
      "SoftwareVersions": "syngo MR B17",
      "SpacingBetweenSlices": 1.9999999621195,
      "SpecificCharacterSet": "ISO_IR 100",
      "StudyID": "1",
      "StudyTime": "103843.390000",
      "TransmitCoilName": "CFMM_8Tx32Rx",
      "VariableFlipAngleFlag": "N",
      "WindowCenterWidthExplanation": "Algo1",
      "dBdt": 0.0},
    "slices": {}
  },
  "time": {
    "samples": {
      "AcquisitionNumber": [1, 2, 3, 4, 5, 6, 7, 8, 9, 10, 11, 12, 13, 14, 15, 16, 17, 18, 19, 20, 21, 22, 23, 24, 25, 26, 27, 28, 29, 30, 31, 32, 33, 34, 35, 36, 37, 38, 39, 40, 41, 42, 43, 44, 45, 46, 47, 48, 49, 50, 51, 52, 53, 54, 55, 56, 57, 58, 59, 60, 61, 62, 63, 64, 65, 66, 67, 68, 69, 70, 71, 72, 73, 74, 75, 76, 77, 78, 79, 80, 81, 82, 83, 84, 85, 86, 87, 88, 89, 90, 91, 92, 93, 94, 95, 96, 97, 98, 99, 100, 101, 102, 103, 104, 105, 106, 107, 108, 109, 110, 111, 112, 113, 114, 115, 116, 117, 118, 119, 120, 121, 122, 123, 124, 125, 126, 127, 128, 129, 130, 131, 132, 133, 134, 135, 136, 137, 138, 139, 140, 141, 142, 143, 144, 145, 146, 147, 148, 149, 150, 151, 152, 153, 154, 155, 156, 157, 158, 159, 160, 161, 162, 163, 164, 165, 166, 167, 168, 169, 170, 171, 172, 173, 174, 175, 176, 177, 178, 179, 180, 181, 182, 183, 184, 185, 186, 187, 188, 189, 190, 191, 192, 193, 194, 195, 196, 197, 198, 199, 200, 201, 202, 203, 204, 205, 206, 207, 208, 209, 210, 211, 212, 213, 214, 215, 216, 217, 218, 219, 220, 221, 222, 223, 224, 225, 226, 227, 228, 229, 230, 231, 232, 233, 234, 235, 236, 237, 238, 239, 240, 241, 242, 243, 244, 245, 246, 247, 248, 249, 250, 251, 252, 253, 254, 255, 256, 257, 258, 259, 260, 261, 262, 263, 264, 265, 266, 267, 268, 269, 270, 271, 272, 273, 274, 275, 276, 277, 278, 279, 280, 281, 282, 283, 284, 285, 286, 287, 288, 289, 290, 291, 292, 293, 294, 295, 296, 297, 298, 299, 300, 301, 302, 303, 304, 305, 306, 307, 308, 309, 310, 311, 312, 313, 314, 315, 316, 317, 318, 319, 320, 321, 322, 323, 324, 325, 326, 327, 328, 329, 330],
      "AcquisitionTime": ["114259.347500", "114300.350000", "114301.355000", "114302.360000", "114303.362500", "114304.367500", "114305.370000", "114306.375000", "114307.380000", "114308.382500", "114309.387500", "114310.390000", "114311.395000", "114312.400000", "114313.402500", "114314.407500", "114315.410000", "114316.415000", "114317.420000", "114318.422500", "114319.427500", "114320.430000", "114321.435000", "114322.440000", "114323.442500", "114324.447500", "114325.450000", "114326.455000", "114327.460000", "114328.462500", "114329.467500", "114330.470000", "114331.475000", "114332.480000", "114333.482500", "114334.487500", "114335.492500", "114336.495000", "114337.500000", "114338.502500", "114339.507500", "114340.512500", "114341.515000", "114342.520000", "114343.522500", "114344.527500", "114345.532500", "114346.535000", "114347.540000", "114348.542500", "114349.547500", "114350.552500", "114351.555000", "114352.560000", "114353.562500", "114354.567500", "114355.572500", "114356.575000", "114357.580000", "114358.582500", "114359.587500", "114400.592500", "114401.595000", "114402.600000", "114403.605000", "114404.607500", "114405.612500", "114406.615000", "114407.620000", "114408.625000", "114409.627500", "114410.632500", "114411.635000", "114412.640000", "114413.645000", "114414.647500", "114415.652500", "114416.655000", "114417.660000", "114418.665000", "114419.667500", "114420.672500", "114421.675000", "114422.680000", "114423.685000", "114424.687500", "114425.692500", "114426.695000", "114427.700000", "114428.705000", "114429.707500", "114430.712500", "114431.715000", "114432.720000", "114433.725000", "114434.727500", "114435.732500", "114436.737500", "114437.740000", "114438.745000", "114439.747500", "114440.752500", "114441.757500", "114442.760000", "114443.765000", "114444.767500", "114445.772500", "114446.777500", "114447.780000", "114448.785000", "114449.787500", "114450.792500", "114451.797500", "114452.800000", "114453.805000", "114454.807500", "114455.812500", "114456.817500", "114457.820000", "114458.825000", "114459.827500", "114500.832500", "114501.837500", "114502.840000", "114503.845000", "114504.847500", "114505.852500", "114506.857500", "114507.860000", "114508.865000", "114509.870000", "114510.872500", "114511.877500", "114512.880000", "114513.885000", "114514.890000", "114515.892500", "114516.897500", "114517.900000", "114518.905000", "114519.910000", "114520.912500", "114521.917500", "114522.920000", "114523.925000", "114524.930000", "114525.932500", "114526.937500", "114527.940000", "114528.945000", "114529.950000", "114530.952500", "114531.957500", "114532.960000", "114533.965000", "114534.970000", "114535.972500", "114536.977500", "114537.982500", "114538.985000", "114539.990000", "114540.992500", "114541.997500", "114543.002500", "114544.005000", "114545.010000", "114546.012500", "114547.017500", "114548.022500", "114549.025000", "114550.030000", "114551.032500", "114552.037500", "114553.042500", "114554.045000", "114555.050000", "114556.052500", "114557.057500", "114558.062500", "114559.065000", "114600.070000", "114601.072500", "114602.077500", "114603.082500", "114604.085000", "114605.090000", "114606.092500", "114607.097500", "114608.102500", "114609.105000", "114610.110000", "114611.115000", "114612.117500", "114613.122500", "114614.125000", "114615.130000", "114616.135000", "114617.137500", "114618.142500", "114619.145000", "114620.150000", "114621.155000", "114622.157500", "114623.162500", "114624.165000", "114625.170000", "114626.175000", "114627.177500", "114628.182500", "114629.185000", "114630.190000", "114631.195000", "114632.197500", "114633.202500", "114634.205000", "114635.210000", "114636.215000", "114637.217500", "114638.222500", "114639.227500", "114640.230000", "114641.235000", "114642.237500", "114643.242500", "114644.247500", "114645.250000", "114646.255000", "114647.257500", "114648.262500", "114649.267500", "114650.270000", "114651.275000", "114652.277500", "114653.282500", "114654.287500", "114655.290000", "114656.295000", "114657.297500", "114658.302500", "114659.307500", "114700.310000", "114701.315000", "114702.317500", "114703.322500", "114704.327500", "114705.330000", "114706.335000", "114707.337500", "114708.342500", "114709.347500", "114710.350000", "114711.355000", "114712.360000", "114713.362500", "114714.367500", "114715.370000", "114716.375000", "114717.380000", "114718.382500", "114719.387500", "114720.390000", "114721.395000", "114722.400000", "114723.402500", "114724.407500", "114725.410000", "114726.415000", "114727.420000", "114728.422500", "114729.427500", "114730.430000", "114731.435000", "114732.440000", "114733.442500", "114734.447500", "114735.450000", "114736.455000", "114737.460000", "114738.462500", "114739.467500", "114740.470000", "114741.475000", "114742.480000", "114743.482500", "114744.487500", "114745.492500", "114746.495000", "114747.500000", "114748.502500", "114749.507500", "114750.512500", "114751.515000", "114752.520000", "114753.522500", "114754.527500", "114755.532500", "114756.535000", "114757.540000", "114758.542500", "114759.547500", "114800.552500", "114801.555000", "114802.560000", "114803.562500", "114804.567500", "114805.572500", "114806.575000", "114807.580000", "114808.582500", "114809.587500", "114810.592500", "114811.595000", "114812.600000", "114813.605000", "114814.607500", "114815.612500", "114816.615000", "114817.620000", "114818.625000", "114819.627500", "114820.632500", "114821.635000", "114822.640000", "114823.645000", "114824.647500", "114825.652500", "114826.655000", "114827.660000", "114828.665000", "114829.667500"],
      "ContentTime": ["114323.687000", "114323.703000", "114323.703000", "114323.703000", "114323.703000", "114323.703000", "114323.703000", "114323.718000", "114323.718000", "114323.718000", "114323.718000", "114323.718000", "114323.718000", "114323.718000", "114323.734000", "114323.734000", "114323.734000", "114323.734000", "114323.734000", "114323.734000", "114323.734000", "114323.750000", "114343.640000", "114343.656000", "114343.656000", "114343.656000", "114343.656000", "114343.656000", "114343.671000", "114343.671000", "114343.671000", "114343.671000", "114343.671000", "114343.671000", "114343.671000", "114343.687000", "114343.687000", "114343.687000", "114343.687000", "114343.687000", "114343.687000", "114343.687000", "114403.640000", "114403.656000", "114403.656000", "114403.656000", "114403.656000", "114403.656000", "114403.656000", "114403.656000", "114403.671000", "114403.671000", "114403.671000", "114403.671000", "114403.671000", "114403.671000", "114403.687000", "114403.687000", "114403.687000", "114403.687000", "114403.687000", "114403.687000", "114423.640000", "114423.656000", "114423.656000", "114423.656000", "114423.656000", "114423.656000", "114423.656000", "114423.656000", "114423.671000", "114423.671000", "114423.671000", "114423.671000", "114423.671000", "114423.671000", "114423.671000", "114423.671000", "114423.687000", "114423.687000", "114423.687000", "114423.687000", "114443.640000", "114443.656000", "114443.656000", "114443.656000", "114443.656000", "114443.656000", "114443.656000", "114443.656000", "114443.671000", "114443.671000", "114443.671000", "114443.671000", "114443.671000", "114443.671000", "114443.671000", "114443.671000", "114443.687000", "114443.687000", "114443.687000", "114443.687000", "114503.640000", "114503.656000", "114503.656000", "114503.656000", "114503.656000", "114503.656000", "114503.656000", "114503.656000", "114503.671000", "114503.671000", "114503.671000", "114503.671000", "114503.671000", "114503.671000", "114503.671000", "114503.671000", "114503.687000", "114503.687000", "114503.687000", "114503.687000", "114523.640000", "114523.656000", "114523.656000", "114523.656000", "114523.656000", "114523.656000", "114523.656000", "114523.656000", "114523.671000", "114523.671000", "114523.671000", "114523.671000", "114523.671000", "114523.687000", "114523.687000", "114523.687000", "114523.687000", "114523.687000", "114523.687000", "114523.703000", "114543.640000", "114543.656000", "114543.656000", "114543.656000", "114543.656000", "114543.656000", "114543.671000", "114543.671000", "114543.671000", "114543.671000", "114543.671000", "114543.671000", "114543.671000", "114543.671000", "114543.687000", "114543.687000", "114543.687000", "114543.687000", "114543.687000", "114543.687000", "114603.640000", "114603.656000", "114603.656000", "114603.656000", "114603.656000", "114603.656000", "114603.671000", "114603.671000", "114603.671000", "114603.671000", "114603.671000", "114603.671000", "114603.671000", "114603.671000", "114603.687000", "114603.687000", "114603.687000", "114603.687000", "114603.687000", "114603.687000", "114623.640000", "114623.656000", "114623.656000", "114623.656000", "114623.656000", "114623.656000", "114623.671000", "114623.671000", "114623.671000", "114623.671000", "114623.671000", "114623.687000", "114623.687000", "114623.687000", "114623.687000", "114623.687000", "114623.687000", "114623.687000", "114623.687000", "114623.703000", "114643.640000", "114643.656000", "114643.656000", "114643.656000", "114643.656000", "114643.656000", "114643.656000", "114643.656000", "114643.671000", "114643.671000", "114643.671000", "114643.671000", "114643.671000", "114643.671000", "114643.671000", "114643.671000", "114643.687000", "114643.687000", "114643.687000", "114643.687000", "114703.656000", "114703.656000", "114703.656000", "114703.656000", "114703.656000", "114703.656000", "114703.671000", "114703.671000", "114703.671000", "114703.671000", "114703.671000", "114703.671000", "114703.671000", "114703.687000", "114703.687000", "114703.687000", "114703.687000", "114703.687000", "114703.687000", "114703.687000", "114723.640000", "114723.656000", "114723.656000", "114723.656000", "114723.656000", "114723.656000", "114723.671000", "114723.671000", "114723.671000", "114723.671000", "114723.687000", "114723.687000", "114723.687000", "114723.687000", "114723.687000", "114723.687000", "114723.687000", "114723.703000", "114723.703000", "114723.703000", "114743.640000", "114743.656000", "114743.656000", "114743.656000", "114743.656000", "114743.656000", "114743.656000", "114743.656000", "114743.671000", "114743.671000", "114743.671000", "114743.671000", "114743.671000", "114743.671000", "114743.671000", "114743.671000", "114743.687000", "114743.687000", "114743.687000", "114743.687000", "114803.640000", "114803.656000", "114803.656000", "114803.656000", "114803.656000", "114803.656000", "114803.656000", "114803.656000", "114803.671000", "114803.671000", "114803.671000", "114803.671000", "114803.671000", "114803.671000", "114803.671000", "114803.671000", "114803.687000", "114803.687000", "114803.687000", "114803.687000", "114823.640000", "114823.656000", "114823.656000", "114823.656000", "114823.656000", "114823.656000", "114823.671000", "114823.671000", "114823.671000", "114823.671000", "114823.671000", "114823.687000", "114823.687000", "114823.687000", "114823.687000", "114823.687000", "114823.687000", "114823.703000", "114823.703000", "114823.703000", "114835.796000", "114835.812000", "114835.812000", "114835.812000", "114835.812000", "114835.812000", "114835.812000", "114835.828000"],
      "InstanceCreationTime": ["114323.687000", "114323.703000", "114323.703000", "114323.703000", "114323.703000", "114323.703000", "114323.703000", "114323.718000", "114323.718000", "114323.718000", "114323.718000", "114323.718000", "114323.718000", "114323.718000", "114323.734000", "114323.734000", "114323.734000", "114323.734000", "114323.734000", "114323.734000", "114323.734000", "114323.750000", "114343.640000", "114343.656000", "114343.656000", "114343.656000", "114343.656000", "114343.656000", "114343.671000", "114343.671000", "114343.671000", "114343.671000", "114343.671000", "114343.671000", "114343.671000", "114343.687000", "114343.687000", "114343.687000", "114343.687000", "114343.687000", "114343.687000", "114343.687000", "114403.640000", "114403.656000", "114403.656000", "114403.656000", "114403.656000", "114403.656000", "114403.656000", "114403.656000", "114403.671000", "114403.671000", "114403.671000", "114403.671000", "114403.671000", "114403.671000", "114403.687000", "114403.687000", "114403.687000", "114403.687000", "114403.687000", "114403.687000", "114423.640000", "114423.656000", "114423.656000", "114423.656000", "114423.656000", "114423.656000", "114423.656000", "114423.656000", "114423.671000", "114423.671000", "114423.671000", "114423.671000", "114423.671000", "114423.671000", "114423.671000", "114423.671000", "114423.687000", "114423.687000", "114423.687000", "114423.687000", "114443.640000", "114443.656000", "114443.656000", "114443.656000", "114443.656000", "114443.656000", "114443.656000", "114443.656000", "114443.671000", "114443.671000", "114443.671000", "114443.671000", "114443.671000", "114443.671000", "114443.671000", "114443.671000", "114443.687000", "114443.687000", "114443.687000", "114443.687000", "114503.640000", "114503.656000", "114503.656000", "114503.656000", "114503.656000", "114503.656000", "114503.656000", "114503.656000", "114503.671000", "114503.671000", "114503.671000", "114503.671000", "114503.671000", "114503.671000", "114503.671000", "114503.671000", "114503.687000", "114503.687000", "114503.687000", "114503.687000", "114523.640000", "114523.656000", "114523.656000", "114523.656000", "114523.656000", "114523.656000", "114523.656000", "114523.656000", "114523.671000", "114523.671000", "114523.671000", "114523.671000", "114523.671000", "114523.687000", "114523.687000", "114523.687000", "114523.687000", "114523.687000", "114523.687000", "114523.703000", "114543.640000", "114543.656000", "114543.656000", "114543.656000", "114543.656000", "114543.656000", "114543.671000", "114543.671000", "114543.671000", "114543.671000", "114543.671000", "114543.671000", "114543.671000", "114543.671000", "114543.687000", "114543.687000", "114543.687000", "114543.687000", "114543.687000", "114543.687000", "114603.640000", "114603.656000", "114603.656000", "114603.656000", "114603.656000", "114603.656000", "114603.671000", "114603.671000", "114603.671000", "114603.671000", "114603.671000", "114603.671000", "114603.671000", "114603.671000", "114603.687000", "114603.687000", "114603.687000", "114603.687000", "114603.687000", "114603.687000", "114623.640000", "114623.656000", "114623.656000", "114623.656000", "114623.656000", "114623.656000", "114623.671000", "114623.671000", "114623.671000", "114623.671000", "114623.671000", "114623.687000", "114623.687000", "114623.687000", "114623.687000", "114623.687000", "114623.687000", "114623.687000", "114623.687000", "114623.703000", "114643.640000", "114643.656000", "114643.656000", "114643.656000", "114643.656000", "114643.656000", "114643.656000", "114643.656000", "114643.671000", "114643.671000", "114643.671000", "114643.671000", "114643.671000", "114643.671000", "114643.671000", "114643.671000", "114643.687000", "114643.687000", "114643.687000", "114643.687000", "114703.656000", "114703.656000", "114703.656000", "114703.656000", "114703.656000", "114703.656000", "114703.671000", "114703.671000", "114703.671000", "114703.671000", "114703.671000", "114703.671000", "114703.671000", "114703.687000", "114703.687000", "114703.687000", "114703.687000", "114703.687000", "114703.687000", "114703.687000", "114723.640000", "114723.656000", "114723.656000", "114723.656000", "114723.656000", "114723.656000", "114723.671000", "114723.671000", "114723.671000", "114723.671000", "114723.687000", "114723.687000", "114723.687000", "114723.687000", "114723.687000", "114723.687000", "114723.687000", "114723.703000", "114723.703000", "114723.703000", "114743.640000", "114743.656000", "114743.656000", "114743.656000", "114743.656000", "114743.656000", "114743.656000", "114743.656000", "114743.671000", "114743.671000", "114743.671000", "114743.671000", "114743.671000", "114743.671000", "114743.671000", "114743.671000", "114743.687000", "114743.687000", "114743.687000", "114743.687000", "114803.640000", "114803.656000", "114803.656000", "114803.656000", "114803.656000", "114803.656000", "114803.656000", "114803.656000", "114803.671000", "114803.671000", "114803.671000", "114803.671000", "114803.671000", "114803.671000", "114803.671000", "114803.671000", "114803.687000", "114803.687000", "114803.687000", "114803.687000", "114823.640000", "114823.656000", "114823.656000", "114823.656000", "114823.656000", "114823.656000", "114823.671000", "114823.671000", "114823.671000", "114823.671000", "114823.671000", "114823.687000", "114823.687000", "114823.687000", "114823.687000", "114823.687000", "114823.687000", "114823.703000", "114823.703000", "114823.703000", "114835.796000", "114835.812000", "114835.812000", "114835.812000", "114835.812000", "114835.812000", "114835.812000", "114835.828000"],
      "InstanceNumber": [1, 2, 3, 4, 5, 6, 7, 8, 9, 10, 11, 12, 13, 14, 15, 16, 17, 18, 19, 20, 21, 22, 23, 24, 25, 26, 27, 28, 29, 30, 31, 32, 33, 34, 35, 36, 37, 38, 39, 40, 41, 42, 43, 44, 45, 46, 47, 48, 49, 50, 51, 52, 53, 54, 55, 56, 57, 58, 59, 60, 61, 62, 63, 64, 65, 66, 67, 68, 69, 70, 71, 72, 73, 74, 75, 76, 77, 78, 79, 80, 81, 82, 83, 84, 85, 86, 87, 88, 89, 90, 91, 92, 93, 94, 95, 96, 97, 98, 99, 100, 101, 102, 103, 104, 105, 106, 107, 108, 109, 110, 111, 112, 113, 114, 115, 116, 117, 118, 119, 120, 121, 122, 123, 124, 125, 126, 127, 128, 129, 130, 131, 132, 133, 134, 135, 136, 137, 138, 139, 140, 141, 142, 143, 144, 145, 146, 147, 148, 149, 150, 151, 152, 153, 154, 155, 156, 157, 158, 159, 160, 161, 162, 163, 164, 165, 166, 167, 168, 169, 170, 171, 172, 173, 174, 175, 176, 177, 178, 179, 180, 181, 182, 183, 184, 185, 186, 187, 188, 189, 190, 191, 192, 193, 194, 195, 196, 197, 198, 199, 200, 201, 202, 203, 204, 205, 206, 207, 208, 209, 210, 211, 212, 213, 214, 215, 216, 217, 218, 219, 220, 221, 222, 223, 224, 225, 226, 227, 228, 229, 230, 231, 232, 233, 234, 235, 236, 237, 238, 239, 240, 241, 242, 243, 244, 245, 246, 247, 248, 249, 250, 251, 252, 253, 254, 255, 256, 257, 258, 259, 260, 261, 262, 263, 264, 265, 266, 267, 268, 269, 270, 271, 272, 273, 274, 275, 276, 277, 278, 279, 280, 281, 282, 283, 284, 285, 286, 287, 288, 289, 290, 291, 292, 293, 294, 295, 296, 297, 298, 299, 300, 301, 302, 303, 304, 305, 306, 307, 308, 309, 310, 311, 312, 313, 314, 315, 316, 317, 318, 319, 320, 321, 322, 323, 324, 325, 326, 327, 328, 329, 330],
      "LargestImagePixelValue": [2725, 2625, 2560, 2547, 2547, 2608, 2557, 2540, 2546, 2446, 2458, 2520, 2485, 2452, 2467, 2345, 2341, 2373, 2383, 2388, 2290, 2355, 2338, 2350, 2333, 2289, 2374, 2302, 2426, 2376, 2332, 2320, 2350, 2407, 2440, 2455, 2430, 2446, 2473, 2460, 2456, 2416, 2396, 2446, 2423, 2412, 2429, 2437, 2477, 2439, 2443, 2452, 2474, 2465, 2458, 2444, 2492, 2491, 2525, 2469, 2471, 2464, 2443, 2505, 2477, 2475, 2460, 2483, 2480, 2457, 2456, 2451, 2467, 2486, 2453, 2451, 2434, 2459, 2478, 2512, 2420, 2478, 2468, 2470, 2479, 2472, 2495, 2507, 2463, 2474, 2479, 2445, 2462, 2483, 2453, 2441, 2426, 2491, 2470, 2458, 2475, 2530, 2520, 2576, 2529, 2525, 2546, 2540, 2503, 2475, 2476, 2478, 2470, 2525, 2533, 2557, 2674, 2635, 2611, 2622, 2635, 2627, 2635, 2467, 2409, 2510, 2605, 2679, 2726, 2618, 2667, 2690, 2744, 2620, 2659, 2591, 2495, 2334, 2386, 2344, 2299, 2339, 2335, 2279, 2280, 2284, 2367, 2391, 2398, 2382, 2352, 2372, 2318, 2310, 2356, 2307, 2250, 2238, 2211, 2309, 2241, 2223, 2225, 2460, 2453, 2485, 2468, 2481, 2468, 2489, 2471, 2713, 2613, 2639, 2620, 2653, 2635, 2661, 2628, 2655, 2643, 2681, 2708, 2751, 2662, 2722, 2727, 2698, 2679, 2647, 2673, 2671, 2679, 2681, 2678, 2708, 2693, 2688, 2690, 2712, 2651, 2676, 2716, 2704, 2665, 2669, 2775, 2762, 2697, 2682, 2727, 2744, 2728, 2758, 2740, 2715, 2748, 2731, 2682, 2684, 2729, 2733, 2709, 2735, 2563, 2564, 2611, 2632, 2648, 2621, 2635, 2647, 2651, 2494, 2535, 2522, 2548, 2504, 2481, 2641, 2552, 2657, 2598, 2599, 2591, 2592, 2599, 2652, 2672, 2627, 2638, 2637, 2645, 2669, 2661, 2678, 2668, 2659, 2609, 2617, 2586, 2594, 2604, 2596, 2591, 2641, 2596, 2631, 2616, 2670, 2635, 2681, 2604, 2613, 2621, 2582, 2603, 2577, 2570, 2529, 2574, 2536, 2570, 2542, 2593, 2559, 2436, 2545, 2495, 2488, 2433, 2403, 2414, 2463, 2392, 2417, 2465, 2496, 2392, 2426, 2493, 2441, 2500, 2465, 2453, 2481, 2459, 2445, 2484, 2576, 2536, 2508, 2524, 2525, 2512, 2507, 2537, 2549, 2522, 2551, 2544, 2503, 2484, 2527, 2497, 2442, 2500, 2453, 2499, 2534],
      "WindowCenter": [425.0, 423.0, 421.0, 420.0, 420.0, 420.0, 419.0, 419.0, 419.0, 420.0, 422.0, 422.0, 421.0, 420.0, 418.0, 417.0, 417.0, 418.0, 418.0, 420.0, 420.0, 420.0, 420.0, 419.0, 418.0, 417.0, 419.0, 419.0, 421.0, 421.0, 421.0, 420.0, 420.0, 420.0, 420.0, 420.0, 420.0, 421.0, 421.0, 421.0, 420.0, 420.0, 419.0, 419.0, 418.0, 419.0, 419.0, 419.0, 420.0, 420.0, 420.0, 420.0, 421.0, 420.0, 420.0, 420.0, 421.0, 421.0, 421.0, 420.0, 420.0, 421.0, 421.0, 421.0, 421.0, 420.0, 419.0, 419.0, 420.0, 420.0, 420.0, 421.0, 421.0, 421.0, 422.0, 422.0, 423.0, 423.0, 423.0, 422.0, 420.0, 421.0, 420.0, 419.0, 419.0, 420.0, 421.0, 421.0, 421.0, 421.0, 421.0, 421.0, 421.0, 420.0, 420.0, 419.0, 419.0, 420.0, 420.0, 420.0, 420.0, 421.0, 421.0, 422.0, 421.0, 421.0, 420.0, 420.0, 419.0, 418.0, 419.0, 419.0, 419.0, 419.0, 421.0, 422.0, 423.0, 423.0, 423.0, 422.0, 422.0, 422.0, 421.0, 420.0, 420.0, 420.0, 421.0, 422.0, 422.0, 421.0, 420.0, 421.0, 420.0, 419.0, 421.0, 421.0, 420.0, 419.0, 418.0, 417.0, 416.0, 416.0, 416.0, 416.0, 417.0, 417.0, 419.0, 419.0, 419.0, 419.0, 418.0, 419.0, 419.0, 420.0, 421.0, 422.0, 422.0, 421.0, 421.0, 420.0, 419.0, 419.0, 419.0, 420.0, 420.0, 421.0, 420.0, 420.0, 421.0, 421.0, 422.0, 425.0, 423.0, 423.0, 423.0, 424.0, 425.0, 425.0, 425.0, 425.0, 425.0, 424.0, 424.0, 424.0, 422.0, 422.0, 424.0, 423.0, 423.0, 424.0, 424.0, 423.0, 423.0, 423.0, 422.0, 422.0, 422.0, 421.0, 421.0, 421.0, 421.0, 421.0, 421.0, 421.0, 420.0, 421.0, 423.0, 423.0, 422.0, 421.0, 421.0, 421.0, 421.0, 421.0, 422.0, 422.0, 422.0, 423.0, 423.0, 422.0, 421.0, 421.0, 420.0, 421.0, 421.0, 421.0, 422.0, 423.0, 421.0, 420.0, 421.0, 420.0, 421.0, 419.0, 421.0, 420.0, 420.0, 421.0, 419.0, 420.0, 420.0, 422.0, 421.0, 421.0, 421.0, 421.0, 421.0, 421.0, 421.0, 422.0, 423.0, 422.0, 422.0, 421.0, 421.0, 422.0, 423.0, 422.0, 421.0, 420.0, 421.0, 420.0, 420.0, 419.0, 419.0, 419.0, 419.0, 419.0, 419.0, 420.0, 419.0, 421.0, 420.0, 419.0, 419.0, 419.0, 418.0, 418.0, 419.0, 419.0, 420.0, 420.0, 420.0, 418.0, 419.0, 419.0, 418.0, 419.0, 419.0, 419.0, 420.0, 420.0, 420.0, 419.0, 418.0, 419.0, 420.0, 420.0, 421.0, 422.0, 422.0, 421.0, 421.0, 420.0, 419.0, 418.0, 418.0, 417.0, 417.0, 419.0, 419.0, 420.0, 420.0, 420.0, 419.0, 419.0, 420.0, 420.0, 420.0, 420.0, 420.0, 419.0, 418.0, 419.0, 419.0, 419.0, 420.0, 419.0, 419.0, 420.0],
