{
    "AcquisitionMatrixPE": 84,
    "AcquisitionNumber": 1,
    "AcquisitionTime": "10:21:39.805000",
    "BaseResolution": 168,
    "CoilString": "C:E1_2",
    "ConversionSoftware": "dcm2niix",
    "ConversionSoftwareVersion": "v1.0.20191031",
    "DeviceSerialNumber": "18932",
    "DwellTime": 4.9e-06,
    "EchoNumber": 2,
    "EchoTime": 0.0051,
    "EchoTime1": 0.00408,
    "EchoTime2": 0.0051,
    "FlipAngle": 35,
    "ImageOrientationPatientDICOM": [
        1,
        -2.05103e-10,
        0,
        2.05103e-10,
        1,
        0
    ],
    "ImageType": [
        "ORIGINAL",
        "PRIMARY",
        "P",
        "ND",
        "PHASE"
    ],
    "ImagingFrequency": 297.229,
    "InPlanePhaseEncodingDirectionDICOM": "ROW",
    "InstitutionAddress": "Richmond_Street_North_1151_London_409EF2_Ontario_CA_N6A_5B7",
    "InstitutionName": "Robarts_Reserch_Institute",
    "InstitutionalDepartmentName": "Department",
    "MRAcquisitionType": "2D",
    "MagneticFieldStrength": 6.98,
    "Manufacturer": "Siemens",
    "ManufacturersModelName": "Investigational_Device_7T",
    "Modality": "MR",
    "PartialFourier": 0.75,
    "PatientPosition": "HFS",
    "PercentPhaseFOV": 100,
    "PhaseEncodingDirection": "i",
    "PhaseEncodingSteps": 63,
    "PhaseResolution": 0.5,
    "PixelBandwidth": 607,
    "ProcedureStepDescription": "Diedrichsen_SeqRep4",
    "ProtocolName": "gre_field_mapping",
    "PulseSequenceDetails": "%SiemensSeq%_gre_field_mapping",
    "ReceiveCoilName": "CFMM_8Tx32Rx",
    "ReconMatrixPE": 168,
    "RepetitionTime": 0.475,
    "ScanOptions": "PFP",
    "ScanningSequence": "GR",
    "SequenceName": "fm2d2r",
    "SequenceVariant": "SP",
    "SeriesDescription": "gre_field_mapping",
    "SeriesNumber": 36,
    "ShimSetting": [
        -5,
        2173,
        67,
        1641,
        -25,
        214,
        198,
        -161
    ],
    "SliceThickness": 2.5,
    "SliceTiming": [
        0.24219,
        0,
        0.25,
        0.00781,
        0.25781,
        0.01562,
        0.26562,
        0.02344,
        0.27344,
        0.03125,
        0.28125,
        0.03906,
        0.28906,
        0.04688,
        0.29688,
        0.05469,
        0.30469,
        0.0625,
        0.3125,
        0.07031,
        0.32031,
        0.07812,
        0.32812,
        0.08594,
        0.32812,
        0.09375,
        0.33594,
        0.10156,
        0.34375,
        0.10938,
        0.35156,
        0.11719,
        0.35938,
        0.125,
        0.36719,
        0.13281,
        0.375,
        0.14062,
        0.38281,
        0.14844,
        0.39062,
        0.15625,
        0.39844,
        0.15625,
        0.40625,
        0.16406,
        0.41406,
        0.17188,
        0.42188,
        0.17969,
        0.42969,
        0.1875,
        0.4375,
        0.19531,
        0.44531,
        0.20312,
        0.45312,
        0.21094,
        0.46094,
        0.21875,
        0.46875,
        0.22656,
        0.46875,
        0.23438
    ],
    "SoftwareVersions": "syngo_MR_B17",
    "SpacingBetweenSlices": 2.5,
    "StationName": "MASTER",
    "TxRefAmp": 124,
    "dcmmeta_affine": [
        [
            -1.25,
            2.5637925116228644e-10,
            0.0,
            105.54801177978516
        ],
        [
            2.5637925116228644e-10,
            1.25,
            0.0,
            -106.77745056152344
        ],
        [
            0.0,
            0.0,
            2.5,
            -85.2831802368164
        ],
        [
            0.0,
            0.0,
            0.0,
            1.0
        ]
    ],
    "dcmmeta_reorient_transform": [
        [
            0.0,
            -1.0,
            0.0,
            167.0
        ],
        [
            1.0,
            0.0,
            0.0,
            0.0
        ],
        [
            0.0,
            0.0,
            -1.0,
            63.0
        ],
        [
            0.0,
            0.0,
            0.0,
            1.0
        ]
    ],
    "dcmmeta_shape": [
        168,
        168,
        64
    ],
    "dcmmeta_slice_dim": 2,
    "dcmmeta_version": 0.6,
    "global": {
        "const": {
            "AcquisitionMatrix": [
                0,
                168,
                84,
                0
            ],
            "AcquisitionNumber": 1,
            "AngioFlag": "N",
            "BitsAllocated": 16,
            "BitsStored": 12,
            "Columns": 168,
            "EchoNumbers": 2,
            "EchoTime": 5.1,
            "EchoTrainLength": 1,
            "FlipAngle": 35.0,
            "HighBit": 11,
            "ImageOrientationPatient": [
                1.0,
                -2.051034e-10,
                0.0,
                2.051034e-10,
                1.0,
                0.0
            ],
            "ImageType": [
                "ORIGINAL",
                "PRIMARY",
                "P",
                "ND"
            ],
            "ImagedNucleus": "1H",
            "ImagingFrequency": 297.228806,
            "InPlanePhaseEncodingDirection": "ROW",
            "MRAcquisitionType": "2D",
            "MagneticFieldStrength": 6.98,
            "Manufacturer": "SIEMENS",
            "ManufacturerModelName": "Investigational_Device_7T",
            "Modality": "MR",
            "NumberOfAverages": 1.0,
            "NumberOfPhaseEncodingSteps": 63,
            "PercentPhaseFieldOfView": 100.0,
            "PercentSampling": 50.0,
            "PerformedProcedureStepStartTime": "085045.000000",
            "PhotometricInterpretation": "MONOCHROME2",
            "PixelBandwidth": 607.0,
            "PixelRepresentation": 0,
            "PixelSpacing": [
                1.25,
                1.25
            ],
            "ProtocolName": "gre_field_mapping",
            "RepetitionTime": 475.0,
            "RescaleIntercept": -4096.0,
            "RescaleSlope": 2.0,
            "RescaleType": "US",
            "Rows": 168,
            "SAR": 0.0,
            "SamplesPerPixel": 1,
            "ScanOptions": "PFP",
            "ScanningSequence": "GR",
            "SequenceName": "fm2d2r",
            "SequenceVariant": "SP",
            "SeriesDescription": "gre_field_mapping",
            "SeriesNumber": 36,
            "SeriesTime": "102243.984000",
            "SliceThickness": 2.5,
            "SoftwareVersions": "syngo MR B17",
            "SpacingBetweenSlices": 2.5,
            "SpecificCharacterSet": "ISO_IR 100",
            "StudyID": "1",
            "StudyTime": "085044.875000",
            "TransmitCoilName": "CFMM_8Tx32Rx",
            "VariableFlipAngleFlag": "N",
            "WindowCenterWidthExplanation": "Algo1",
            "dBdt": 0.0
        },
        "slices": {
            "AcquisitionTime": [
                "102139.805000",
                "102139.565000",
                "102139.812500",
                "102139.572500",
                "102139.820000",
                "102139.580000",
                "102139.827500",
                "102139.587500",
                "102139.835000",
                "102139.595000",
                "102139.842500",
                "102139.602500",
                "102139.850000",
                "102139.610000",
                "102139.857500",
                "102139.617500",
                "102139.865000",
                "102139.625000",
                "102139.872500",
                "102139.632500",
                "102139.880000",
                "102139.640000",
                "102139.887500",
                "102139.647500",
                "102139.892500",
                "102139.655000",
                "102139.900000",
                "102139.662500",
                "102139.907500",
                "102139.670000",
                "102139.915000",
                "102139.677500",
                "102139.922500",
                "102139.685000",
                "102139.930000",
                "102139.692500",
                "102139.937500",
                "102139.700000",
                "102139.945000",
                "102139.707500",
                "102139.952500",
                "102139.715000",
                "102139.960000",
                "102139.722500",
                "102139.967500",
                "102139.730000",
                "102139.975000",
                "102139.737500",
                "102139.982500",
                "102139.745000",
                "102139.990000",
                "102139.752500",
                "102139.997500",
                "102139.760000",
                "102140.005000",
                "102139.767500",
                "102140.012500",
                "102139.775000",
                "102140.020000",
                "102139.782500",
                "102140.027500",
                "102139.790000",
                "102140.035000",
                "102139.797500"
            ],
            "ContentTime": [
                "102244.625000",
                "102244.000000",
                "102244.625000",
                "102244.000000",
                "102244.640000",
                "102244.000000",
                "102244.640000",
                "102244.000000",
                "102244.640000",
                "102244.000000",
                "102244.640000",
                "102244.000000",
                "102244.640000",
                "102244.000000",
                "102244.640000",
                "102244.015000",
                "102244.640000",
                "102244.015000",
                "102244.640000",
                "102244.015000",
                "102244.640000",
                "102244.015000",
                "102244.656000",
                "102244.015000",
                "102244.656000",
                "102244.015000",
                "102244.656000",
                "102244.015000",
                "102244.656000",
                "102244.015000",
                "102244.656000",
                "102244.015000",
                "102244.656000",
                "102244.031000",
                "102244.671000",
                "102244.031000",
                "102244.671000",
                "102244.031000",
                "102244.671000",
                "102244.031000",
                "102244.671000",
                "102244.125000",
                "102244.671000",
                "102244.609000",
                "102244.671000",
                "102244.609000",
                "102244.687000",
                "102244.609000",
                "102244.687000",
                "102244.609000",
                "102244.687000",
                "102244.625000",
                "102244.687000",
                "102244.625000",
                "102244.687000",
                "102244.625000",
                "102244.703000",
                "102244.625000",
                "102244.703000",
                "102244.625000",
                "102244.703000",
                "102244.625000",
                "102244.703000",
                "102244.625000"
            ],
            "CsaImage.ICE_Dims": [
                "X_2_1_1_1_1_1_33_1_1_1_1_50",
                "X_2_1_1_1_1_1_1_1_1_2_1_50",
                "X_2_1_1_1_1_1_34_1_1_3_1_50",
                "X_2_1_1_1_1_1_2_1_1_4_1_50",
                "X_2_1_1_1_1_1_35_1_1_5_1_50",
                "X_2_1_1_1_1_1_3_1_1_6_1_50",
                "X_2_1_1_1_1_1_36_1_1_7_1_50",
                "X_2_1_1_1_1_1_4_1_1_8_1_50",
                "X_2_1_1_1_1_1_37_1_1_9_1_50",
                "X_2_1_1_1_1_1_5_1_1_10_1_50",
                "X_2_1_1_1_1_1_38_1_1_11_1_50",
                "X_2_1_1_1_1_1_6_1_1_12_1_50",
                "X_2_1_1_1_1_1_39_1_1_13_1_50",
                "X_2_1_1_1_1_1_7_1_1_14_1_50",
                "X_2_1_1_1_1_1_40_1_1_15_1_50",
                "X_2_1_1_1_1_1_8_1_1_16_1_50",
                "X_2_1_1_1_1_1_41_1_1_17_1_50",
                "X_2_1_1_1_1_1_9_1_1_18_1_50",
                "X_2_1_1_1_1_1_42_1_1_19_1_50",
                "X_2_1_1_1_1_1_10_1_1_20_1_50",
                "X_2_1_1_1_1_1_43_1_1_21_1_50",
                "X_2_1_1_1_1_1_11_1_1_22_1_50",
                "X_2_1_1_1_1_1_44_1_1_23_1_50",
                "X_2_1_1_1_1_1_12_1_1_24_1_50",
                "X_2_1_1_1_1_1_45_1_1_25_1_50",
                "X_2_1_1_1_1_1_13_1_1_26_1_50",
                "X_2_1_1_1_1_1_46_1_1_27_1_50",
                "X_2_1_1_1_1_1_14_1_1_28_1_50",
                "X_2_1_1_1_1_1_47_1_1_29_1_50",
                "X_2_1_1_1_1_1_15_1_1_30_1_50",
                "X_2_1_1_1_1_1_48_1_1_31_1_50",
                "X_2_1_1_1_1_1_16_1_1_32_1_50",
                "X_2_1_1_1_1_1_49_1_1_33_1_50",
                "X_2_1_1_1_1_1_17_1_1_34_1_50",
                "X_2_1_1_1_1_1_50_1_1_35_1_50",
                "X_2_1_1_1_1_1_18_1_1_36_1_50",
                "X_2_1_1_1_1_1_51_1_1_37_1_50",
                "X_2_1_1_1_1_1_19_1_1_38_1_50",
                "X_2_1_1_1_1_1_52_1_1_39_1_50",
                "X_2_1_1_1_1_1_20_1_1_40_1_50",
                "X_2_1_1_1_1_1_53_1_1_41_1_50",
                "X_2_1_1_1_1_1_21_1_1_42_1_50",
                "X_2_1_1_1_1_1_54_1_1_43_1_50",
                "X_2_1_1_1_1_1_22_1_1_44_1_50",
                "X_2_1_1_1_1_1_55_1_1_45_1_50",
                "X_2_1_1_1_1_1_23_1_1_46_1_50",
                "X_2_1_1_1_1_1_56_1_1_47_1_50",
                "X_2_1_1_1_1_1_24_1_1_48_1_50",
                "X_2_1_1_1_1_1_57_1_1_49_1_50",
                "X_2_1_1_1_1_1_25_1_1_50_1_50",
                "X_2_1_1_1_1_1_58_1_1_51_1_50",
                "X_2_1_1_1_1_1_26_1_1_52_1_50",
                "X_2_1_1_1_1_1_59_1_1_53_1_50",
                "X_2_1_1_1_1_1_27_1_1_54_1_50",
                "X_2_1_1_1_1_1_60_1_1_55_1_50",
                "X_2_1_1_1_1_1_28_1_1_56_1_50",
                "X_2_1_1_1_1_1_61_1_1_57_1_50",
                "X_2_1_1_1_1_1_29_1_1_58_1_50",
                "X_2_1_1_1_1_1_62_1_1_59_1_50",
                "X_2_1_1_1_1_1_30_1_1_60_1_50",
                "X_2_1_1_1_1_1_63_1_1_61_1_50",
                "X_2_1_1_1_1_1_31_1_1_62_1_50",
                "X_2_1_1_1_1_1_64_1_1_63_1_50",
                "X_2_1_1_1_1_1_32_1_1_64_1_50"
            ],
            "CsaImage.ProtocolSliceNumber": [
                0,
                1,
                2,
                3,
                4,
                5,
                6,
                7,
                8,
                9,
                10,
                11,
                12,
                13,
                14,
                15,
                16,
                17,
                18,
                19,
                20,
                21,
                22,
                23,
                24,
                25,
                26,
                27,
                28,
                29,
                30,
                31,
                32,
                33,
                34,
                35,
                36,
                37,
                38,
                39,
                40,
                41,
                42,
                43,
                44,
                45,
                46,
                47,
                48,
                49,
                50,
                51,
                52,
                53,
                54,
                55,
                56,
                57,
                58,
                59,
                60,
                61,
                62,
                63
            ],
            "CsaImage.SliceMeasurementDuration": [
                59135.0,
                59137.5,
                59135.0,
                59137.5,
                59135.0,
                59137.5,
                59135.0,
                59137.5,
                59135.0,
                59137.5,
                59135.0,
                59137.5,
                59135.0,
                59137.5,
                59135.0,
                59137.5,
                59135.0,
                59137.5,
                59135.0,
                59137.5,
                59135.0,
                59137.5,
                59135.0,
                59137.5,
                59137.5,
                59137.5,
                59137.5,
                59137.5,
                59137.5,
                59137.5,
                59137.5,
                59137.5,
                59137.5,
                59137.5,
                59137.5,
                59137.5,
                59137.5,
                59137.5,
                59137.5,
                59137.5,
                59137.5,
                59137.5,
                59137.5,
                59137.5,
                59137.5,
                59137.5,
                59137.5,
                59137.5,
                59137.5,
                59137.5,
                59137.5,
                59135.0,
                59137.5,
                59135.0,
                59137.5,
                59135.0,
                59137.5,
                59135.0,
                59137.5,
                59135.0,
                59137.5,
                59135.0,
                59137.5,
                59135.0
            ],
            "CsaImage.SlicePosition_PCS": [
                [
                    -105.54801043,
                    -101.97254989,
                    -85.28318024
                ],
                [
                    -105.54801043,
                    -101.97254989,
                    -82.78318024
                ],
                [
                    -105.54801043,
                    -101.97254989,
                    -80.28318024
                ],
                [
                    -105.54801043,
                    -101.97254989,
                    -77.78318024
                ],
                [
                    -105.54801043,
                    -101.97254989,
                    -75.28318024
                ],
                [
                    -105.54801043,
                    -101.97254989,
                    -72.78318024
                ],
                [
                    -105.54801043,
                    -101.97254989,
                    -70.28318024
                ],
                [
                    -105.54801043,
                    -101.97254989,
                    -67.78318024
                ],
                [
                    -105.54801043,
                    -101.97254989,
                    -65.28318024
                ],
                [
                    -105.54801043,
                    -101.97254989,
                    -62.78317642
                ],
                [
                    -105.54801043,
                    -101.97254989,
                    -60.28317642
                ],
                [
                    -105.54801043,
                    -101.97254989,
                    -57.78317642
                ],
                [
                    -105.54801043,
                    -101.97254989,
                    -55.28317642
                ],
                [
                    -105.54801043,
                    -101.97254989,
                    -52.78317642
                ],
                [
                    -105.54801043,
                    -101.97254989,
                    -50.28317642
                ],
                [
                    -105.54801043,
                    -101.97254989,
                    -47.78317642
                ],
                [
                    -105.54801043,
                    -101.97254989,
                    -45.28317642
                ],
                [
                    -105.54801043,
                    -101.97254989,
                    -42.78317642
                ],
                [
                    -105.54801043,
                    -101.97254989,
                    -40.28317642
                ],
                [
                    -105.54801043,
                    -101.97254989,
                    -37.78317642
                ],
                [
                    -105.54801043,
                    -101.97254989,
                    -35.28317642
                ],
                [
                    -105.54801043,
                    -101.97254989,
                    -32.78317642
                ],
                [
                    -105.54801043,
                    -101.97254989,
                    -30.28317642
                ],
                [
                    -105.54801043,
                    -101.97254989,
                    -27.78317642
                ],
                [
                    -105.54801043,
                    -101.97254989,
                    -25.28317642
                ],
                [
                    -105.54801043,
                    -101.97254989,
                    -22.78317642
                ],
                [
                    -105.54801043,
                    -101.97254989,
                    -20.28317642
                ],
                [
                    -105.54801043,
                    -101.97254989,
                    -17.78317642
                ],
                [
                    -105.54801043,
                    -101.97254989,
                    -15.28317738
                ],
                [
                    -105.54801043,
                    -101.97254989,
                    -12.78317738
                ],
                [
                    -105.54801043,
                    -101.97254989,
                    -10.28317738
                ],
                [
                    -105.54801043,
                    -101.97254989,
                    -7.7831769
                ],
                [
                    -105.54801043,
                    -101.97254989,
                    -5.2831769
                ],
                [
                    -105.54801043,
                    -101.97254989,
                    -2.7831769
                ],
                [
                    -105.54801043,
                    -101.97254989,
                    -0.28317693
                ],
                [
                    -105.54801043,
                    -101.97254989,
                    2.2168231
                ],
                [
                    -105.54801043,
                    -101.97254989,
                    4.7168231
                ],
                [
                    -105.54801043,
                    -101.97254989,
                    7.2168231
                ],
                [
                    -105.54801043,
                    -101.97254989,
                    9.71682262
                ],
                [
                    -105.54801043,
                    -101.97254989,
                    12.21682262
                ],
                [
                    -105.54801043,
                    -101.97254989,
                    14.71682262
                ],
                [
                    -105.54801043,
                    -101.97254989,
                    17.21682358
                ],
                [
                    -105.54801043,
                    -101.97254989,
                    19.71682358
                ],
                [
                    -105.54801043,
                    -101.97254989,
                    22.21682358
                ],
                [
                    -105.54801043,
                    -101.97254989,
                    24.71682358
                ],
                [
                    -105.54801043,
                    -101.97254989,
                    27.21682358
                ],
                [
                    -105.54801043,
                    -101.97254989,
                    29.71682358
                ],
                [
                    -105.54801043,
                    -101.97254989,
                    32.21682358
                ],
                [
                    -105.54801043,
                    -101.97254989,
                    34.71682358
                ],
                [
                    -105.54801043,
                    -101.97254989,
                    37.21682358
                ],
                [
                    -105.54801043,
                    -101.97254989,
                    39.71682358
                ],
                [
                    -105.54801043,
                    -101.97254989,
                    42.21682358
                ],
                [
                    -105.54801043,
                    -101.97254989,
                    44.71682358
                ],
                [
                    -105.54801043,
                    -101.97254989,
                    47.21682358
                ],
                [
                    -105.54801043,
                    -101.97254989,
                    49.71682358
                ],
                [
                    -105.54801043,
                    -101.97254989,
                    52.21682358
                ],
                [
                    -105.54801043,
                    -101.97254989,
                    54.71682358
                ],
                [
                    -105.54801043,
                    -101.97254989,
                    57.21682358
                ],
                [
                    -105.54801043,
                    -101.97254989,
                    59.71682358
                ],
                [
                    -105.54801043,
                    -101.97254989,
                    62.21682358
                ],
                [
                    -105.54801043,
                    -101.97254989,
                    64.71681976
                ],
                [
                    -105.54801043,
                    -101.97254989,
                    67.21681976
                ],
                [
                    -105.54801043,
                    -101.97254989,
                    69.71681976
                ],
                [
                    -105.54801043,
                    -101.97254989,
                    72.21681976
                ]
            ],
            "CsaImage.TimeAfterStart": [
                0.7175,
                0.4775,
                0.725,
                0.485,
                0.7325,
                0.4925,
                0.74,
                0.5,
                0.7475,
                0.5075,
                0.755,
                0.515,
                0.7625,
                0.5225,
                0.77,
                0.53,
                0.7775,
                0.5375,
                0.785,
                0.545,
                0.7925,
                0.5525,
                0.8,
                0.56,
                0.8075,
                0.5675,
                0.815,
                0.575,
                0.8225,
                0.5825,
                0.83,
                0.59,
                0.8375,
                0.5975,
                0.8425,
                0.605,
                0.85,
                0.6125,
                0.8575,
                0.62,
                0.865,
                0.6275,
                0.8725,
                0.635,
                0.88,
                0.6425,
                0.8875,
                0.65,
                0.895,
                0.6575,
                0.9025,
                0.665,
                0.91,
                0.6725,
                0.9175,
                0.68,
                0.925,
                0.6875,
                0.9325,
                0.695,
                0.94,
                0.7025,
                0.9475,
                0.71
            ],
            "ImagePositionPatient": [
                [
                    -105.54801043041,
                    -101.97254989378,
                    -85.283180236816
                ],
                [
                    -105.54801043041,
                    -101.97254989378,
                    -82.783180236816
                ],
                [
                    -105.54801043041,
                    -101.97254989378,
                    -80.283180236816
                ],
                [
                    -105.54801043041,
                    -101.97254989378,
                    -77.783180236816
                ],
                [
                    -105.54801043041,
                    -101.97254989378,
                    -75.283180236816
                ],
                [
                    -105.54801043041,
                    -101.97254989378,
                    -72.783180236816
                ],
                [
                    -105.54801043041,
                    -101.97254989378,
                    -70.283180236816
                ],
                [
                    -105.54801043041,
                    -101.97254989378,
                    -67.783180236816
                ],
                [
                    -105.54801043041,
                    -101.97254989378,
                    -65.283180236816
                ],
                [
                    -105.54801043041,
                    -101.97254989378,
                    -62.783176422119
                ],
                [
                    -105.54801043041,
                    -101.97254989378,
                    -60.283176422119
                ],
                [
                    -105.54801043041,
                    -101.97254989378,
                    -57.783176422119
                ],
                [
                    -105.54801043041,
                    -101.97254989378,
                    -55.283176422119
                ],
                [
                    -105.54801043041,
                    -101.97254989378,
                    -52.783176422119
                ],
                [
                    -105.54801043041,
                    -101.97254989378,
                    -50.283176422119
                ],
                [
                    -105.54801043041,
