{
  "AcquisitionMatrixPE": 104,
  "AcquisitionNumber": 1,
  "AcquisitionTime": "10:17:26.820000",
  "BandwidthPerPixelPhaseEncode": 43.054,
  "BaseResolution": 104,
  "CoilString": "C:E1_2",
  "ConversionSoftware": "dcm2niix",
  "ConversionSoftwareVersion": "v1.0.20191031",
  "DerivedVendorReportedEchoSpacing": 0.000669999,
  "DeviceSerialNumber": "18932",
  "DwellTime": 2.8e-06,
  "EchoTime": 0.02,
  "EffectiveEchoSpacing": 0.000223333,
  "FlipAngle": 30,
  "ImageComments": "Unaliased_MB2_PE2",
  "ImageOrientationPatientDICOM": [1, 2e-16, 0, -2e-16, 0.991671, -0.128796],
  "ImageType": [
    "ORIGINAL",
    "PRIMARY",
    "M",
    "MB",
    "ND",
    "MOSAIC"
],
  "ImagingFrequency": 297.229,
  "InPlanePhaseEncodingDirectionDICOM": "COL",
  "InstitutionAddress": "Richmond_Street_North_1151_London_409EF2_Ontario_CA_N6A_5B7",
  "InstitutionName": "Robarts_Reserch_Institute",
  "InstitutionalDepartmentName": "Department",
  "MRAcquisitionType": "2D",
  "MagneticFieldStrength": 6.98,
  "Manufacturer": "Siemens",
  "ManufacturersModelName": "Investigational_Device_7T",
  "Modality": "MR",
  "MultibandAccelerationFactor": 2,
  "ParallelReductionFactorInPlane": 3,
  "PartialFourier": 0.875,
  "PatientPosition": "HFS",
  "PercentPhaseFOV": 100,
  "PhaseEncodingDirection": "j-",
  "PhaseEncodingSteps": 91,
  "PhaseResolution": 1,
  "PixelBandwidth": 1717,
  "ProcedureStepDescription": "Diedrichsen_SeqRep4",
  "ProtocolName": "mbep2d_bold_mb2_p3_AP_2iso",
  "PulseSequenceDetails": "%CustomerSeq%_cmrr_mbep2d_bold",
  "ReceiveCoilName": "CFMM_8Tx32Rx",
  "ReconMatrixPE": 104,
  "RefLinesPE": 36,
  "RepetitionTime": 1,
  "ScanOptions": "PFP_FS",
  "ScanningSequence": "EP",
  "SequenceName": "epfid2d1_104",
  "SequenceVariant": "SK_SS",
  "SeriesDescription": "mbep2d_bold_mb2_p3_AP_2iso",
  "SeriesNumber": 28,
  "ShimSetting": [-14, 2022, 42, 1483, 7, -60, 221, -154],
  "SliceThickness": 2,
  "SliceTiming": [0, 0.2275, 0.4575, 0.685, 0.9125, 0.1375, 0.365, 0.5925, 0.8225, 0.0475, 0.275, 0.5025, 0.73, 0.9575, 0.1825, 0.41, 0.64, 0.8675, 0.0925, 0.32, 0.5475, 0.775, 0, 0.2275, 0.4575, 0.685, 0.9125, 0.1375, 0.365, 0.5925, 0.8225, 0.0475, 0.275, 0.5025, 0.73, 0.9575, 0.1825, 0.41, 0.64, 0.8675, 0.0925, 0.32, 0.5475, 0.775],
  "SoftwareVersions": "syngo_MR_B17",
  "SpacingBetweenSlices": 2,
  "StationName": "MASTER",
  "TaskName": "dsp",
  "TotalReadoutTime": 0.0230033,
  "TxRefAmp": 120,
  "dcmmeta_affine": [
    [-2.0, -4.000000067449534e-16, 5.1518237917901055e-17, 105.4527816772461],
    [-4.000000067449534e-16, 1.9833422899246216, -0.257591187953949, -113.77422332763672],
    [0.0, 0.257591187953949, 1.9833422899246216, -50.01731491088867],
    [0.0, 0.0, 0.0, 1.0]
],
  "dcmmeta_reorient_transform": [
    [0.0, -1.0, 0.0, 103.0],
    [1.0, 0.0, 0.0, 0.0],
    [0.0, 0.0, 1.0, 0.0],
    [0.0, 0.0, 0.0, 1.0]
],
  "dcmmeta_shape": [104, 104, 44, 330],
  "dcmmeta_slice_dim": 2,
  "dcmmeta_version": 0.6,
  "global": {
    "const": {
      "AcquisitionMatrix": [104, 0, 0, 104],
      "AngioFlag": "N",
      "BitsAllocated": 16,
      "BitsStored": 12,
      "Columns": 728,
      "EchoNumbers": 1,
      "EchoTime": 20.0,
      "EchoTrainLength": 1,
      "FlipAngle": 30.0,
      "HighBit": 11,
      "ImageOrientationPatient": [1.0, 2e-16, 0.0, -2e-16, 0.99167116265211, -0.1287955945062],
      "ImagePositionPatient": [-729.45278453827, -709.31284237265, 56.883027700431],
      "ImageType": [
        "ORIGINAL",
        "PRIMARY",
        "M",
        "MB",
        "ND",
        "MOSAIC"
],
      "ImagedNucleus": "1H",
      "ImagingFrequency": 297.228842,
      "InPlanePhaseEncodingDirection": "COL",
      "MRAcquisitionType": "2D",
      "MagneticFieldStrength": 6.98,
      "Manufacturer": "SIEMENS",
      "ManufacturerModelName": "Investigational_Device_7T",
      "Modality": "MR",
      "NumberOfAverages": 1.0,
      "NumberOfPhaseEncodingSteps": 91,
      "PercentPhaseFieldOfView": 100.0,
      "PercentSampling": 100.0,
      "PerformedProcedureStepStartTime": "090559.843000",
      "PhotometricInterpretation": "MONOCHROME2",
      "PixelBandwidth": 1717.0,
      "PixelRepresentation": 0,
      "PixelSpacing": [2.0, 2.0],
      "ProtocolName": "mbep2d_bold_mb2_p3_AP 2iso",
      "RepetitionTime": 1000.0,
      "Rows": 728,
      "SAR": 0.0,
      "SamplesPerPixel": 1,
      "ScanOptions": [
        "PFP",
        "FS"
],
      "ScanningSequence": "EP",
      "SequenceName": "epfid2d1_104",
      "SequenceVariant": [
        "SK",
        "SS"
],
      "SeriesDescription": "mbep2d_bold_mb2_p3_AP 2iso",
      "SeriesNumber": 28,
      "SeriesTime": "101800.593000",
      "SliceLocation": -34.947111009424,
      "SliceThickness": 2.0,
      "SmallestImagePixelValue": 0,
      "SoftwareVersions": "syngo MR B17",
      "SpacingBetweenSlices": 1.9999999584949,
      "SpecificCharacterSet": "ISO_IR 100",
      "StudyID": "1",
      "StudyTime": "090559.796000",
      "TransmitCoilName": "CFMM_8Tx32Rx",
      "VariableFlipAngleFlag": "N",
      "WindowCenterWidthExplanation": "Algo1",
      "dBdt": 0.0},
    "slices": {}
  },
  "time": {
    "samples": {
      "AcquisitionNumber": [1, 2, 3, 4, 5, 6, 7, 8, 9, 10, 11, 12, 13, 14, 15, 16, 17, 18, 19, 20, 21, 22, 23, 24, 25, 26, 27, 28, 29, 30, 31, 32, 33, 34, 35, 36, 37, 38, 39, 40, 41, 42, 43, 44, 45, 46, 47, 48, 49, 50, 51, 52, 53, 54, 55, 56, 57, 58, 59, 60, 61, 62, 63, 64, 65, 66, 67, 68, 69, 70, 71, 72, 73, 74, 75, 76, 77, 78, 79, 80, 81, 82, 83, 84, 85, 86, 87, 88, 89, 90, 91, 92, 93, 94, 95, 96, 97, 98, 99, 100, 101, 102, 103, 104, 105, 106, 107, 108, 109, 110, 111, 112, 113, 114, 115, 116, 117, 118, 119, 120, 121, 122, 123, 124, 125, 126, 127, 128, 129, 130, 131, 132, 133, 134, 135, 136, 137, 138, 139, 140, 141, 142, 143, 144, 145, 146, 147, 148, 149, 150, 151, 152, 153, 154, 155, 156, 157, 158, 159, 160, 161, 162, 163, 164, 165, 166, 167, 168, 169, 170, 171, 172, 173, 174, 175, 176, 177, 178, 179, 180, 181, 182, 183, 184, 185, 186, 187, 188, 189, 190, 191, 192, 193, 194, 195, 196, 197, 198, 199, 200, 201, 202, 203, 204, 205, 206, 207, 208, 209, 210, 211, 212, 213, 214, 215, 216, 217, 218, 219, 220, 221, 222, 223, 224, 225, 226, 227, 228, 229, 230, 231, 232, 233, 234, 235, 236, 237, 238, 239, 240, 241, 242, 243, 244, 245, 246, 247, 248, 249, 250, 251, 252, 253, 254, 255, 256, 257, 258, 259, 260, 261, 262, 263, 264, 265, 266, 267, 268, 269, 270, 271, 272, 273, 274, 275, 276, 277, 278, 279, 280, 281, 282, 283, 284, 285, 286, 287, 288, 289, 290, 291, 292, 293, 294, 295, 296, 297, 298, 299, 300, 301, 302, 303, 304, 305, 306, 307, 308, 309, 310, 311, 312, 313, 314, 315, 316, 317, 318, 319, 320, 321, 322, 323, 324, 325, 326, 327, 328, 329, 330],
      "AcquisitionTime": ["101726.820000", "101727.825000", "101728.827500", "101729.832500", "101730.837500", "101731.840000", "101732.845000", "101733.850000", "101734.852500", "101735.857500", "101736.860000", "101737.865000", "101738.870000", "101739.872500", "101740.877500", "101741.880000", "101742.885000", "101743.890000", "101744.892500", "101745.897500", "101746.900000", "101747.905000", "101748.910000", "101749.912500", "101750.917500", "101751.920000", "101752.925000", "101753.930000", "101754.932500", "101755.937500", "101756.940000", "101757.945000", "101758.950000", "101759.952500", "101800.957500", "101801.960000", "101802.965000", "101803.970000", "101804.972500", "101805.977500", "101806.982500", "101807.985000", "101808.990000", "101809.992500", "101810.997500", "101812.002500", "101813.005000", "101814.010000", "101815.012500", "101816.017500", "101817.022500", "101818.025000", "101819.030000", "101820.032500", "101821.037500", "101822.042500", "101823.045000", "101824.050000", "101825.052500", "101826.057500", "101827.062500", "101828.065000", "101829.070000", "101830.072500", "101831.077500", "101832.082500", "101833.085000", "101834.090000", "101835.095000", "101836.097500", "101837.102500", "101838.105000", "101839.110000", "101840.115000", "101841.117500", "101842.122500", "101843.125000", "101844.130000", "101845.135000", "101846.137500", "101847.142500", "101848.145000", "101849.150000", "101850.155000", "101851.157500", "101852.162500", "101853.165000", "101854.170000", "101855.175000", "101856.177500", "101857.182500", "101858.185000", "101859.190000", "101900.195000", "101901.197500", "101902.202500", "101903.205000", "101904.210000", "101905.215000", "101906.217500", "101907.222500", "101908.227500", "101909.230000", "101910.235000", "101911.237500", "101912.242500", "101913.247500", "101914.250000", "101915.255000", "101916.257500", "101917.262500", "101918.267500", "101919.270000", "101920.275000", "101921.277500", "101922.282500", "101923.287500", "101924.290000", "101925.295000", "101926.297500", "101927.302500", "101928.307500", "101929.310000", "101930.315000", "101931.317500", "101932.322500", "101933.327500", "101934.330000", "101935.335000", "101936.337500", "101937.342500", "101938.347500", "101939.350000", "101940.355000", "101941.360000", "101942.362500", "101943.367500", "101944.370000", "101945.375000", "101946.380000", "101947.382500", "101948.387500", "101949.390000", "101950.395000", "101951.400000", "101952.402500", "101953.407500", "101954.410000", "101955.415000", "101956.420000", "101957.422500", "101958.427500", "101959.430000", "102000.435000", "102001.440000", "102002.442500", "102003.447500", "102004.450000", "102005.455000", "102006.460000", "102007.462500", "102008.467500", "102009.472500", "102010.475000", "102011.480000", "102012.482500", "102013.487500", "102014.492500", "102015.495000", "102016.500000", "102017.502500", "102018.507500", "102019.512500", "102020.515000", "102021.520000", "102022.522500", "102023.527500", "102024.532500", "102025.535000", "102026.540000", "102027.542500", "102028.547500", "102029.552500", "102030.555000", "102031.560000", "102032.562500", "102033.567500", "102034.572500", "102035.575000", "102036.580000", "102037.582500", "102038.587500", "102039.592500", "102040.595000", "102041.600000", "102042.605000", "102043.607500", "102044.612500", "102045.615000", "102046.620000", "102047.625000", "102048.627500", "102049.632500", "102050.635000", "102051.640000", "102052.645000", "102053.647500", "102054.652500", "102055.655000", "102056.660000", "102057.665000", "102058.667500", "102059.672500", "102100.675000", "102101.680000", "102102.685000", "102103.687500", "102104.692500", "102105.695000", "102106.700000", "102107.705000", "102108.707500", "102109.712500", "102110.715000", "102111.720000", "102112.725000", "102113.727500", "102114.732500", "102115.737500", "102116.740000", "102117.745000", "102118.747500", "102119.752500", "102120.757500", "102121.760000", "102122.765000", "102123.767500", "102124.772500", "102125.777500", "102126.780000", "102127.785000", "102128.787500", "102129.792500", "102130.797500", "102131.800000", "102132.805000", "102133.807500", "102134.812500", "102135.817500", "102136.820000", "102137.825000", "102138.827500", "102139.832500", "102140.837500", "102141.840000", "102142.845000", "102143.850000", "102144.852500", "102145.857500", "102146.860000", "102147.865000", "102148.870000", "102149.872500", "102150.877500", "102151.880000", "102152.885000", "102153.890000", "102154.892500", "102155.897500", "102156.900000", "102157.905000", "102158.910000", "102159.912500", "102200.917500", "102201.920000", "102202.925000", "102203.930000", "102204.932500", "102205.937500", "102206.940000", "102207.945000", "102208.950000", "102209.952500", "102210.957500", "102211.960000", "102212.965000", "102213.970000", "102214.972500", "102215.977500", "102216.982500", "102217.985000", "102218.990000", "102219.992500", "102220.997500", "102222.002500", "102223.005000", "102224.010000", "102225.012500", "102226.017500", "102227.022500", "102228.025000", "102229.030000", "102230.032500", "102231.037500", "102232.042500", "102233.045000", "102234.050000", "102235.052500", "102236.057500", "102237.062500", "102238.065000", "102239.070000", "102240.072500", "102241.077500", "102242.082500", "102243.085000", "102244.090000", "102245.095000", "102246.097500", "102247.102500", "102248.105000", "102249.110000", "102250.115000", "102251.117500", "102252.122500", "102253.125000", "102254.130000", "102255.135000", "102256.137500", "102257.142500"],
      "ContentTime": ["101800.593000", "101800.593000", "101800.593000", "101800.593000", "101800.593000", "101800.609000", "101800.609000", "101800.609000", "101800.609000", "101800.609000", "101800.609000", "101800.609000", "101800.625000", "101800.625000", "101800.625000", "101800.625000", "101800.625000", "101800.625000", "101800.625000", "101800.640000", "101800.640000", "101800.640000", "101800.640000", "101800.640000", "101800.640000", "101800.656000", "101800.656000", "101800.656000", "101800.656000", "101800.656000", "101800.656000", "101800.656000", "101820.546000", "101820.546000", "101820.546000", "101820.546000", "101820.562000", "101820.562000", "101820.562000", "101820.562000", "101820.562000", "101820.562000", "101820.562000", "101820.578000", "101820.578000", "101820.578000", "101820.578000", "101820.578000", "101820.578000", "101820.593000", "101820.593000", "101820.593000", "101840.546000", "101840.546000", "101840.546000", "101840.546000", "101840.562000", "101840.562000", "101840.562000", "101840.562000", "101840.562000", "101840.562000", "101840.562000", "101840.562000", "101840.578000", "101840.578000", "101840.578000", "101840.578000", "101840.578000", "101840.578000", "101840.593000", "101840.593000", "101900.546000", "101900.546000", "101900.546000", "101900.546000", "101900.562000", "101900.562000", "101900.562000", "101900.562000", "101900.562000", "101900.562000", "101900.562000", "101900.562000", "101900.578000", "101900.578000", "101900.578000", "101900.593000", "101900.593000", "101900.593000", "101900.593000", "101900.593000", "101920.546000", "101920.546000", "101920.546000", "101920.562000", "101920.562000", "101920.562000", "101920.562000", "101920.562000", "101920.562000", "101920.562000", "101920.578000", "101920.578000", "101920.578000", "101920.578000", "101920.578000", "101920.578000", "101920.578000", "101920.578000", "101920.593000", "101920.593000", "101940.546000", "101940.562000", "101940.562000", "101940.562000", "101940.562000", "101940.562000", "101940.562000", "101940.562000", "101940.562000", "101940.578000", "101940.578000", "101940.578000", "101940.578000", "101940.578000", "101940.578000", "101940.593000", "101940.593000", "101940.593000", "101940.593000", "101940.593000", "102000.546000", "102000.546000", "102000.546000", "102000.546000", "102000.562000", "102000.562000", "102000.562000", "102000.562000", "102000.562000", "102000.562000", "102000.578000", "102000.578000", "102000.578000", "102000.578000", "102000.578000", "102000.593000", "102000.593000", "102000.593000", "102000.609000", "102000.609000", "102020.546000", "102020.546000", "102020.562000", "102020.562000", "102020.562000", "102020.562000", "102020.562000", "102020.578000", "102020.578000", "102020.578000", "102020.578000", "102020.578000", "102020.578000", "102020.578000", "102020.593000", "102020.593000", "102020.593000", "102020.593000", "102020.593000", "102020.593000", "102040.546000", "102040.546000", "102040.546000", "102040.562000", "102040.562000", "102040.562000", "102040.562000", "102040.562000", "102040.562000", "102040.562000", "102040.578000", "102040.578000", "102040.578000", "102040.578000", "102040.578000", "102040.578000", "102040.578000", "102040.593000", "102040.593000", "102040.593000", "102100.546000", "102100.546000", "102100.546000", "102100.562000", "102100.562000", "102100.562000", "102100.562000", "102100.562000", "102100.562000", "102100.562000", "102100.578000", "102100.578000", "102100.578000", "102100.578000", "102100.578000", "102100.578000", "102100.578000", "102100.578000", "102100.593000", "102100.593000", "102120.546000", "102120.546000", "102120.546000", "102120.546000", "102120.562000", "102120.562000", "102120.562000", "102120.562000", "102120.562000", "102120.562000", "102120.562000", "102120.562000", "102120.578000", "102120.578000", "102120.578000", "102120.578000", "102120.578000", "102120.578000", "102120.578000", "102120.593000", "102140.546000", "102140.546000", "102140.546000", "102140.546000", "102140.562000", "102140.562000", "102140.562000", "102140.562000", "102140.562000", "102140.562000", "102140.562000", "102140.562000", "102140.578000", "102140.578000", "102140.578000", "102140.578000", "102140.578000", "102140.578000", "102140.578000", "102140.593000", "102200.546000", "102200.546000", "102200.546000", "102200.546000", "102200.562000", "102200.562000", "102200.562000", "102200.562000", "102200.562000", "102200.562000", "102200.578000", "102200.578000", "102200.578000", "102200.578000", "102200.578000", "102200.578000", "102200.578000", "102200.578000", "102200.593000", "102200.593000", "102220.546000", "102220.546000", "102220.546000", "102220.546000", "102220.562000", "102220.562000", "102220.562000", "102220.562000", "102220.562000", "102220.562000", "102220.562000", "102220.578000", "102220.578000", "102220.578000", "102220.578000", "102220.578000", "102220.578000", "102220.578000", "102220.578000", "102220.593000", "102240.546000", "102240.546000", "102240.546000", "102240.546000", "102240.562000", "102240.562000", "102240.562000", "102240.562000", "102240.562000", "102240.562000", "102240.562000", "102240.562000", "102240.578000", "102240.578000", "102240.578000", "102240.578000", "102240.578000", "102240.578000", "102240.593000", "102240.593000", "102303.171000", "102303.171000", "102303.171000", "102303.171000", "102303.171000", "102303.171000", "102303.187000", "102303.187000", "102303.187000", "102303.187000", "102303.187000", "102303.187000", "102303.187000", "102303.203000", "102303.203000", "102303.203000", "102303.203000", "102303.203000"],
      "InstanceCreationTime": ["101800.593000", "101800.593000", "101800.593000", "101800.593000", "101800.593000", "101800.609000", "101800.609000", "101800.609000", "101800.609000", "101800.609000", "101800.609000", "101800.609000", "101800.625000", "101800.625000", "101800.625000", "101800.625000", "101800.625000", "101800.625000", "101800.625000", "101800.640000", "101800.640000", "101800.640000", "101800.640000", "101800.640000", "101800.640000", "101800.656000", "101800.656000", "101800.656000", "101800.656000", "101800.656000", "101800.656000", "101800.656000", "101820.546000", "101820.546000", "101820.546000", "101820.546000", "101820.562000", "101820.562000", "101820.562000", "101820.562000", "101820.562000", "101820.562000", "101820.562000", "101820.578000", "101820.578000", "101820.578000", "101820.578000", "101820.578000", "101820.578000", "101820.593000", "101820.593000", "101820.593000", "101840.546000", "101840.546000", "101840.546000", "101840.546000", "101840.562000", "101840.562000", "101840.562000", "101840.562000", "101840.562000", "101840.562000", "101840.562000", "101840.562000", "101840.578000", "101840.578000", "101840.578000", "101840.578000", "101840.578000", "101840.578000", "101840.593000", "101840.593000", "101900.546000", "101900.546000", "101900.546000", "101900.546000", "101900.562000", "101900.562000", "101900.562000", "101900.562000", "101900.562000", "101900.562000", "101900.562000", "101900.562000", "101900.578000", "101900.578000", "101900.578000", "101900.593000", "101900.593000", "101900.593000", "101900.593000", "101900.593000", "101920.546000", "101920.546000", "101920.546000", "101920.562000", "101920.562000", "101920.562000", "101920.562000", "101920.562000", "101920.562000", "101920.562000", "101920.578000", "101920.578000", "101920.578000", "101920.578000", "101920.578000", "101920.578000", "101920.578000", "101920.578000", "101920.593000", "101920.593000", "101940.546000", "101940.562000", "101940.562000", "101940.562000", "101940.562000", "101940.562000", "101940.562000", "101940.562000", "101940.562000", "101940.578000", "101940.578000", "101940.578000", "101940.578000", "101940.578000", "101940.578000", "101940.593000", "101940.593000", "101940.593000", "101940.593000", "101940.593000", "102000.546000", "102000.546000", "102000.546000", "102000.546000", "102000.562000", "102000.562000", "102000.562000", "102000.562000", "102000.562000", "102000.562000", "102000.578000", "102000.578000", "102000.578000", "102000.578000", "102000.578000", "102000.593000", "102000.593000", "102000.593000", "102000.609000", "102000.609000", "102020.546000", "102020.546000", "102020.562000", "102020.562000", "102020.562000", "102020.562000", "102020.562000", "102020.578000", "102020.578000", "102020.578000", "102020.578000", "102020.578000", "102020.578000", "102020.578000", "102020.593000", "102020.593000", "102020.593000", "102020.593000", "102020.593000", "102020.593000", "102040.546000", "102040.546000", "102040.546000", "102040.562000", "102040.562000", "102040.562000", "102040.562000", "102040.562000", "102040.562000", "102040.562000", "102040.578000", "102040.578000", "102040.578000", "102040.578000", "102040.578000", "102040.578000", "102040.578000", "102040.593000", "102040.593000", "102040.593000", "102100.546000", "102100.546000", "102100.546000", "102100.562000", "102100.562000", "102100.562000", "102100.562000", "102100.562000", "102100.562000", "102100.562000", "102100.578000", "102100.578000", "102100.578000", "102100.578000", "102100.578000", "102100.578000", "102100.578000", "102100.578000", "102100.593000", "102100.593000", "102120.546000", "102120.546000", "102120.546000", "102120.546000", "102120.562000", "102120.562000", "102120.562000", "102120.562000", "102120.562000", "102120.562000", "102120.562000", "102120.562000", "102120.578000", "102120.578000", "102120.578000", "102120.578000", "102120.578000", "102120.578000", "102120.578000", "102120.593000", "102140.546000", "102140.546000", "102140.546000", "102140.546000", "102140.562000", "102140.562000", "102140.562000", "102140.562000", "102140.562000", "102140.562000", "102140.562000", "102140.562000", "102140.578000", "102140.578000", "102140.578000", "102140.578000", "102140.578000", "102140.578000", "102140.578000", "102140.593000", "102200.546000", "102200.546000", "102200.546000", "102200.546000", "102200.562000", "102200.562000", "102200.562000", "102200.562000", "102200.562000", "102200.562000", "102200.578000", "102200.578000", "102200.578000", "102200.578000", "102200.578000", "102200.578000", "102200.578000", "102200.578000", "102200.593000", "102200.593000", "102220.546000", "102220.546000", "102220.546000", "102220.546000", "102220.562000", "102220.562000", "102220.562000", "102220.562000", "102220.562000", "102220.562000", "102220.562000", "102220.578000", "102220.578000", "102220.578000", "102220.578000", "102220.578000", "102220.578000", "102220.578000", "102220.578000", "102220.593000", "102240.546000", "102240.546000", "102240.546000", "102240.546000", "102240.562000", "102240.562000", "102240.562000", "102240.562000", "102240.562000", "102240.562000", "102240.562000", "102240.562000", "102240.578000", "102240.578000", "102240.578000", "102240.578000", "102240.578000", "102240.578000", "102240.593000", "102240.593000", "102303.171000", "102303.171000", "102303.171000", "102303.171000", "102303.171000", "102303.171000", "102303.187000", "102303.187000", "102303.187000", "102303.187000", "102303.187000", "102303.187000", "102303.187000", "102303.203000", "102303.203000", "102303.203000", "102303.203000", "102303.203000"],
      "InstanceNumber": [1, 2, 3, 4, 5, 6, 7, 8, 9, 10, 11, 12, 13, 14, 15, 16, 17, 18, 19, 20, 21, 22, 23, 24, 25, 26, 27, 28, 29, 30, 31, 32, 33, 34, 35, 36, 37, 38, 39, 40, 41, 42, 43, 44, 45, 46, 47, 48, 49, 50, 51, 52, 53, 54, 55, 56, 57, 58, 59, 60, 61, 62, 63, 64, 65, 66, 67, 68, 69, 70, 71, 72, 73, 74, 75, 76, 77, 78, 79, 80, 81, 82, 83, 84, 85, 86, 87, 88, 89, 90, 91, 92, 93, 94, 95, 96, 97, 98, 99, 100, 101, 102, 103, 104, 105, 106, 107, 108, 109, 110, 111, 112, 113, 114, 115, 116, 117, 118, 119, 120, 121, 122, 123, 124, 125, 126, 127, 128, 129, 130, 131, 132, 133, 134, 135, 136, 137, 138, 139, 140, 141, 142, 143, 144, 145, 146, 147, 148, 149, 150, 151, 152, 153, 154, 155, 156, 157, 158, 159, 160, 161, 162, 163, 164, 165, 166, 167, 168, 169, 170, 171, 172, 173, 174, 175, 176, 177, 178, 179, 180, 181, 182, 183, 184, 185, 186, 187, 188, 189, 190, 191, 192, 193, 194, 195, 196, 197, 198, 199, 200, 201, 202, 203, 204, 205, 206, 207, 208, 209, 210, 211, 212, 213, 214, 215, 216, 217, 218, 219, 220, 221, 222, 223, 224, 225, 226, 227, 228, 229, 230, 231, 232, 233, 234, 235, 236, 237, 238, 239, 240, 241, 242, 243, 244, 245, 246, 247, 248, 249, 250, 251, 252, 253, 254, 255, 256, 257, 258, 259, 260, 261, 262, 263, 264, 265, 266, 267, 268, 269, 270, 271, 272, 273, 274, 275, 276, 277, 278, 279, 280, 281, 282, 283, 284, 285, 286, 287, 288, 289, 290, 291, 292, 293, 294, 295, 296, 297, 298, 299, 300, 301, 302, 303, 304, 305, 306, 307, 308, 309, 310, 311, 312, 313, 314, 315, 316, 317, 318, 319, 320, 321, 322, 323, 324, 325, 326, 327, 328, 329, 330],
      "LargestImagePixelValue": [2765, 2772, 2700, 2712, 2710, 2711, 2683, 2652, 2570, 2558, 2608, 2629, 2617, 2652, 2626, 2669, 2628, 2664, 2673, 2647, 2651, 2673, 2706, 2674, 2670, 2695, 2656, 2668, 2648, 2650, 2675, 2646, 2657, 2639, 2653, 2684, 2658, 2650, 2646, 2627, 2680, 2656, 2639, 2671, 2657, 2649, 2680, 2674, 2690, 2643, 2664, 2662, 2708, 2674, 2690, 2657, 2710, 2690, 2661, 2680, 2659, 2666, 2665, 2647, 2645, 2677, 2662, 2673, 2649, 2623, 2639, 2669, 2683, 2633, 2628, 2585, 2600, 2592, 2585, 2584, 2634, 2626, 2626, 2576, 2616, 2581, 2607, 2569, 2599, 2632, 2599, 2625, 2564, 2609, 2605, 2616, 2610, 2559, 2599, 2628, 2641, 2594, 2571, 2563, 2566, 2589, 2591, 2594, 2652, 2593, 2582, 2544, 2582, 2614, 2592, 2544, 2582, 2630, 2604, 2579, 2581, 2579, 2571, 2571, 2644, 2615, 2551, 2573, 2608, 2646, 2618, 2577, 2605, 2608, 2659, 2599, 2592, 2594, 2646, 2630, 2614, 2571, 2605, 2605, 2590, 2562, 2566, 2590, 2650, 2599, 2553, 2600, 2593, 2566, 2595, 2603, 2581, 2578, 2627, 2612, 2561, 2591, 2578, 2611, 2606, 2550, 2540, 2567, 2628, 2604, 2617, 2684, 2611, 2634, 2610, 2601, 2553, 2584, 2628, 2565, 2572, 2613, 2574, 2606, 2593, 2610, 2570, 2656, 2587, 2575, 2543, 2520, 2604, 2566, 2559, 2534, 2574, 2596, 2559, 2573, 2608, 2577, 2582, 2582, 2560, 2557, 2580, 2596, 2566, 2581, 2709, 2690, 2614, 2564, 2592, 2610, 2612, 2584, 2589, 2610, 2649, 2611, 2565, 2614, 2588, 2624, 2615, 2617, 2677, 2636, 2635, 2614, 2577, 2619, 2589, 2629, 2549, 2561, 2569, 2561, 2572, 2555, 2542, 2563, 2598, 2556, 2587, 2558, 2564, 2593, 2568, 2583, 2583, 2600, 2602, 2596, 2545, 2584, 2615, 2606, 2585, 2606, 2580, 2564, 2575, 2574, 2572, 2543, 2591, 2581, 2604, 2625, 2657, 2624, 2567, 2544, 2659, 2639, 2571, 2546, 2602, 2590, 2650, 2594, 2574, 2568, 2581, 2592, 2577, 2584, 2628, 2645, 2613, 2570, 2611, 2615, 2593, 2538, 2592, 2594, 2603, 2593, 2636, 2628, 2568, 2677, 2650, 2660, 2599, 2617, 2576, 2581, 2576, 2592, 2579, 2603, 2577, 2609, 2563, 2581, 2628, 2586, 2574, 2579, 2574, 2611, 2611, 2566, 2534, 2597],
      "WindowCenter": [478.0, 478.0, 476.0, 476.0, 476.0, 476.0, 476.0, 477.0, 476.0, 476.0, 477.0, 477.0, 477.0, 477.0, 478.0, 479.0, 478.0, 479.0, 478.0, 477.0, 477.0, 479.0, 479.0, 479.0, 479.0, 479.0, 478.0, 478.0, 478.0, 478.0, 479.0, 480.0, 479.0, 477.0, 477.0, 476.0, 476.0, 476.0, 475.0, 476.0, 477.0, 477.0, 476.0, 476.0, 476.0, 476.0, 476.0, 476.0, 477.0, 477.0, 478.0, 477.0, 476.0, 476.0, 476.0, 475.0, 476.0, 476.0, 476.0, 476.0, 476.0, 476.0, 476.0, 476.0, 476.0, 476.0, 476.0, 476.0, 477.0, 477.0, 477.0, 477.0, 478.0, 477.0, 476.0, 475.0, 475.0, 476.0, 477.0, 477.0, 477.0, 476.0, 475.0, 474.0, 474.0, 475.0, 476.0, 475.0, 476.0, 476.0, 475.0, 476.0, 476.0, 477.0, 477.0, 477.0, 477.0, 475.0, 475.0, 474.0, 475.0, 474.0, 474.0, 475.0, 476.0, 476.0, 476.0, 476.0, 476.0, 474.0, 474.0, 473.0, 473.0, 474.0, 473.0, 472.0, 472.0, 473.0, 472.0, 472.0, 472.0, 474.0, 475.0, 475.0, 476.0, 475.0, 474.0, 474.0, 474.0, 474.0, 474.0, 473.0, 473.0, 473.0, 474.0, 474.0, 474.0, 474.0, 474.0, 474.0, 474.0, 473.0, 475.0, 476.0, 477.0, 477.0, 476.0, 476.0, 475.0, 474.0, 474.0, 476.0, 476.0, 477.0, 477.0, 476.0, 475.0, 475.0, 475.0, 474.0, 474.0, 474.0, 474.0, 475.0, 475.0, 475.0, 475.0, 476.0, 477.0, 477.0, 478.0, 479.0, 478.0, 478.0, 478.0, 477.0, 475.0, 475.0, 476.0, 476.0, 476.0, 476.0, 476.0, 475.0, 475.0, 474.0, 474.0, 476.0, 475.0, 477.0, 476.0, 475.0, 476.0, 475.0, 476.0, 474.0, 474.0, 473.0, 472.0, 472.0, 472.0, 472.0, 473.0, 474.0, 474.0, 475.0, 475.0, 475.0, 475.0, 476.0, 477.0, 477.0, 476.0, 476.0, 476.0, 476.0, 475.0, 475.0, 475.0, 476.0, 476.0, 476.0, 476.0, 476.0, 475.0, 475.0, 475.0, 476.0, 478.0, 478.0, 479.0, 478.0, 477.0, 476.0, 475.0, 474.0, 473.0, 473.0, 474.0, 473.0, 473.0, 473.0, 472.0, 472.0, 472.0, 472.0, 472.0, 473.0, 475.0, 476.0, 475.0, 475.0, 475.0, 474.0, 474.0, 474.0, 473.0, 474.0, 475.0, 474.0, 475.0, 474.0, 475.0, 475.0, 476.0, 476.0, 476.0, 476.0, 477.0, 476.0, 477.0, 476.0, 476.0, 474.0, 473.0, 473.0, 475.0, 475.0, 475.0, 476.0, 476.0, 477.0, 477.0, 476.0, 476.0, 476.0, 476.0, 476.0, 476.0, 477.0, 476.0, 477.0, 476.0, 475.0, 475.0, 475.0, 474.0, 473.0, 473.0, 474.0, 474.0, 475.0, 477.0, 477.0, 477.0, 478.0, 478.0, 478.0, 477.0, 478.0, 478.0, 477.0, 476.0, 475.0, 475.0, 474.0, 474.0, 474.0, 475.0, 476.0, 477.0, 476.0, 475.0, 475.0, 474.0, 473.0, 474.0, 473.0, 473.0, 474.0],
