{
    "AcquisitionMatrixPE": 84,
    "AcquisitionNumber": 1,
    "AcquisitionTime": "13:54:29.645000",
    "BaseResolution": 168,
    "CoilString": "C:E1_2",
    "ConversionSoftware": "dcm2niix",
    "ConversionSoftwareVersion": "v1.0.20191031",
    "DeviceSerialNumber": "18932",
    "DwellTime": 4.9e-06,
    "EchoNumber": 2,
    "EchoTime": 0.0051,
    "EchoTime1": 0.00408,
    "EchoTime2": 0.0051,
    "FlipAngle": 35,
    "ImageOrientationPatientDICOM": [
        1,
        -2.05103e-10,
        0,
        2.05103e-10,
        1,
        0
    ],
    "ImageType": [
        "ORIGINAL",
        "PRIMARY",
        "P",
        "ND",
        "PHASE"
    ],
    "ImagingFrequency": 297.229,
    "InPlanePhaseEncodingDirectionDICOM": "ROW",
    "InstitutionAddress": "Richmond_Street_North_1151_London_409EF2_Ontario_CA_N6A_5B7",
    "InstitutionName": "Robarts_Reserch_Institute",
    "InstitutionalDepartmentName": "Department",
    "MRAcquisitionType": "2D",
    "MagneticFieldStrength": 6.98,
    "Manufacturer": "Siemens",
    "ManufacturersModelName": "Investigational_Device_7T",
    "Modality": "MR",
    "MultibandAccelerationFactor": 2,
    "PartialFourier": 0.75,
    "PatientPosition": "HFS",
    "PercentPhaseFOV": 100,
    "PhaseEncodingDirection": "i",
    "PhaseEncodingSteps": 63,
    "PhaseResolution": 0.5,
    "PixelBandwidth": 607,
    "ProcedureStepDescription": "Diedrichsen_SeqRep4",
    "ProtocolName": "gre_field_mapping",
    "PulseSequenceDetails": "%SiemensSeq%_gre_field_mapping",
    "ReceiveCoilName": "CFMM_8Tx32Rx",
    "ReconMatrixPE": 168,
    "RepetitionTime": 0.475,
    "ScanOptions": "PFP",
    "ScanningSequence": "GR",
    "SequenceName": "fm2d2r",
    "SequenceVariant": "SP",
    "SeriesDescription": "gre_field_mapping",
    "SeriesNumber": 36,
    "ShimSetting": [
        29,
        2057,
        86,
        1756,
        53,
        131,
        355,
        -110
    ],
    "SliceThickness": 2.5,
    "SliceTiming": [
        0.23438,
        0,
        0.25,
        0,
        0.25,
        0.01562,
        0.26562,
        0.01562,
        0.26562,
        0.03125,
        0.28125,
        0.03125,
        0.28125,
        0.04688,
        0.29688,
        0.04688,
        0.29688,
        0.0625,
        0.3125,
        0.0625,
        0.3125,
        0.07812,
        0.32812,
        0.07812,
        0.32812,
        0.09375,
        0.34375,
        0.09375,
        0.34375,
        0.10938,
        0.34375,
        0.10938,
        0.35938,
        0.125,
        0.35938,
        0.125,
        0.375,
        0.14062,
        0.375,
        0.14062,
        0.39062,
        0.15625,
        0.39062,
        0.15625,
        0.40625,
        0.15625,
        0.40625,
        0.17188,
        0.42188,
        0.17188,
        0.42188,
        0.1875,
        0.4375,
        0.1875,
        0.4375,
        0.20312,
        0.45312,
        0.20312,
        0.45312,
        0.21875,
        0.46875,
        0.21875,
        0.46875,
        0.23438
    ],
    "SoftwareVersions": "syngo_MR_B17",
    "SpacingBetweenSlices": 2.5,
    "StationName": "MASTER",
    "TxRefAmp": 123.134,
    "dcmmeta_affine": [
        [
            -1.25,
            2.5637925116228644e-10,
            0.0,
            105.54801177978516
        ],
        [
            2.5637925116228644e-10,
            1.25,
            0.0,
            -109.68302154541016
        ],
        [
            0.0,
            0.0,
            2.5,
            -80.19843292236328
        ],
        [
            0.0,
            0.0,
            0.0,
            1.0
        ]
    ],
    "dcmmeta_reorient_transform": [
        [
            0.0,
            -1.0,
            0.0,
            167.0
        ],
        [
            1.0,
            0.0,
            0.0,
            0.0
        ],
        [
            0.0,
            0.0,
            -1.0,
            63.0
        ],
        [
            0.0,
            0.0,
            0.0,
            1.0
        ]
    ],
    "dcmmeta_shape": [
        168,
        168,
        64
    ],
    "dcmmeta_slice_dim": 2,
    "dcmmeta_version": 0.6,
    "global": {
        "const": {
            "AcquisitionMatrix": [
                0,
                168,
                84,
                0
            ],
            "AcquisitionNumber": 1,
            "AngioFlag": "N",
            "BitsAllocated": 16,
            "BitsStored": 12,
            "Columns": 168,
            "EchoNumbers": 2,
            "EchoTime": 5.1,
            "EchoTrainLength": 1,
            "FlipAngle": 35.0,
            "HighBit": 11,
            "ImageOrientationPatient": [
                1.0,
                -2.051034e-10,
                0.0,
                2.051034e-10,
                1.0,
                0.0
            ],
            "ImageType": [
                "ORIGINAL",
                "PRIMARY",
                "P",
                "ND"
            ],
            "ImagedNucleus": "1H",
            "ImagingFrequency": 297.228806,
            "InPlanePhaseEncodingDirection": "ROW",
            "MRAcquisitionType": "2D",
            "MagneticFieldStrength": 6.98,
            "Manufacturer": "SIEMENS",
            "ManufacturerModelName": "Investigational_Device_7T",
            "Modality": "MR",
            "NumberOfAverages": 1.0,
            "NumberOfPhaseEncodingSteps": 63,
            "PercentPhaseFieldOfView": 100.0,
            "PercentSampling": 50.0,
            "PerformedProcedureStepStartTime": "122510.093000",
            "PhotometricInterpretation": "MONOCHROME2",
            "PixelBandwidth": 607.0,
            "PixelRepresentation": 0,
            "PixelSpacing": [
                1.25,
                1.25
            ],
            "ProtocolName": "gre_field_mapping",
            "RepetitionTime": 475.0,
            "RescaleIntercept": -4096.0,
            "RescaleSlope": 2.0,
            "RescaleType": "US",
            "Rows": 168,
            "SAR": 0.0,
            "SamplesPerPixel": 1,
            "ScanOptions": "PFP",
            "ScanningSequence": "GR",
            "SequenceName": "fm2d2r",
            "SequenceVariant": "SP",
            "SeriesDescription": "gre_field_mapping",
            "SeriesNumber": 36,
            "SeriesTime": "135535.218000",
            "SliceThickness": 2.5,
            "SoftwareVersions": "syngo MR B17",
            "SpacingBetweenSlices": 2.5,
            "SpecificCharacterSet": "ISO_IR 100",
            "StudyID": "1",
            "StudyTime": "122510.031000",
            "TransmitCoilName": "CFMM_8Tx32Rx",
            "VariableFlipAngleFlag": "N",
            "WindowCenterWidthExplanation": "Algo1",
            "dBdt": 0.0
        },
        "slices": {
            "AcquisitionTime": [
                "135429.645000",
                "135429.405000",
                "135429.652500",
                "135429.412500",
                "135429.660000",
                "135429.420000",
                "135429.667500",
                "135429.427500",
                "135429.675000",
                "135429.435000",
                "135429.682500",
                "135429.442500",
                "135429.690000",
                "135429.450000",
                "135429.697500",
                "135429.457500",
                "135429.705000",
                "135429.465000",
                "135429.712500",
                "135429.472500",
                "135429.720000",
                "135429.480000",
                "135429.727500",
                "135429.487500",
                "135429.735000",
                "135429.495000",
                "135429.742500",
                "135429.502500",
                "135429.747500",
                "135429.510000",
                "135429.755000",
                "135429.517500",
                "135429.762500",
                "135429.525000",
                "135429.770000",
                "135429.532500",
                "135429.777500",
                "135429.540000",
                "135429.785000",
                "135429.547500",
                "135429.792500",
                "135429.555000",
                "135429.800000",
                "135429.562500",
                "135429.807500",
                "135429.570000",
                "135429.815000",
                "135429.577500",
                "135429.822500",
                "135429.585000",
                "135429.830000",
                "135429.592500",
                "135429.837500",
                "135429.600000",
                "135429.845000",
                "135429.607500",
                "135429.852500",
                "135429.615000",
                "135429.860000",
                "135429.622500",
                "135429.867500",
                "135429.630000",
                "135429.875000",
                "135429.637500"
            ],
            "ContentTime": [
                "135535.296000",
                "135535.234000",
                "135535.296000",
                "135535.234000",
                "135535.296000",
                "135535.234000",
                "135535.296000",
                "135535.234000",
                "135535.296000",
                "135535.234000",
                "135535.296000",
                "135535.234000",
                "135535.296000",
                "135535.234000",
                "135535.312000",
                "135535.250000",
                "135535.312000",
                "135535.250000",
                "135535.312000",
                "135535.250000",
                "135535.312000",
                "135535.250000",
                "135535.328000",
                "135535.250000",
                "135535.328000",
                "135535.250000",
                "135535.328000",
                "135535.250000",
                "135535.328000",
                "135535.250000",
                "135535.328000",
                "135535.250000",
                "135535.328000",
                "135535.265000",
                "135535.328000",
                "135535.265000",
                "135535.328000",
                "135535.265000",
                "135535.328000",
                "135535.265000",
                "135535.343000",
                "135535.265000",
                "135535.343000",
                "135535.265000",
                "135535.343000",
                "135535.281000",
                "135535.359000",
                "135535.281000",
                "135535.359000",
                "135535.281000",
                "135535.359000",
                "135535.281000",
                "135535.359000",
                "135535.281000",
                "135535.359000",
                "135535.281000",
                "135535.359000",
                "135535.281000",
                "135535.359000",
                "135535.281000",
                "135535.359000",
                "135535.296000",
                "135535.375000",
                "135535.296000"
            ],
            "CsaImage.ICE_Dims": [
                "X_2_1_1_1_1_1_33_1_1_1_1_132",
                "X_2_1_1_1_1_1_1_1_1_2_1_132",
                "X_2_1_1_1_1_1_34_1_1_3_1_132",
                "X_2_1_1_1_1_1_2_1_1_4_1_132",
                "X_2_1_1_1_1_1_35_1_1_5_1_132",
                "X_2_1_1_1_1_1_3_1_1_6_1_132",
                "X_2_1_1_1_1_1_36_1_1_7_1_132",
                "X_2_1_1_1_1_1_4_1_1_8_1_132",
                "X_2_1_1_1_1_1_37_1_1_9_1_132",
                "X_2_1_1_1_1_1_5_1_1_10_1_132",
                "X_2_1_1_1_1_1_38_1_1_11_1_132",
                "X_2_1_1_1_1_1_6_1_1_12_1_132",
                "X_2_1_1_1_1_1_39_1_1_13_1_132",
                "X_2_1_1_1_1_1_7_1_1_14_1_132",
                "X_2_1_1_1_1_1_40_1_1_15_1_132",
                "X_2_1_1_1_1_1_8_1_1_16_1_132",
                "X_2_1_1_1_1_1_41_1_1_17_1_132",
                "X_2_1_1_1_1_1_9_1_1_18_1_132",
                "X_2_1_1_1_1_1_42_1_1_19_1_132",
                "X_2_1_1_1_1_1_10_1_1_20_1_132",
                "X_2_1_1_1_1_1_43_1_1_21_1_132",
                "X_2_1_1_1_1_1_11_1_1_22_1_132",
                "X_2_1_1_1_1_1_44_1_1_23_1_132",
                "X_2_1_1_1_1_1_12_1_1_24_1_132",
                "X_2_1_1_1_1_1_45_1_1_25_1_132",
                "X_2_1_1_1_1_1_13_1_1_26_1_132",
                "X_2_1_1_1_1_1_46_1_1_27_1_132",
                "X_2_1_1_1_1_1_14_1_1_28_1_132",
                "X_2_1_1_1_1_1_47_1_1_29_1_132",
                "X_2_1_1_1_1_1_15_1_1_30_1_132",
                "X_2_1_1_1_1_1_48_1_1_31_1_132",
                "X_2_1_1_1_1_1_16_1_1_32_1_132",
                "X_2_1_1_1_1_1_49_1_1_33_1_132",
                "X_2_1_1_1_1_1_17_1_1_34_1_132",
                "X_2_1_1_1_1_1_50_1_1_35_1_132",
                "X_2_1_1_1_1_1_18_1_1_36_1_132",
                "X_2_1_1_1_1_1_51_1_1_37_1_132",
                "X_2_1_1_1_1_1_19_1_1_38_1_132",
                "X_2_1_1_1_1_1_52_1_1_39_1_132",
                "X_2_1_1_1_1_1_20_1_1_40_1_132",
                "X_2_1_1_1_1_1_53_1_1_41_1_132",
                "X_2_1_1_1_1_1_21_1_1_42_1_132",
                "X_2_1_1_1_1_1_54_1_1_43_1_132",
                "X_2_1_1_1_1_1_22_1_1_44_1_132",
                "X_2_1_1_1_1_1_55_1_1_45_1_132",
                "X_2_1_1_1_1_1_23_1_1_46_1_132",
                "X_2_1_1_1_1_1_56_1_1_47_1_132",
                "X_2_1_1_1_1_1_24_1_1_48_1_132",
                "X_2_1_1_1_1_1_57_1_1_49_1_132",
                "X_2_1_1_1_1_1_25_1_1_50_1_132",
                "X_2_1_1_1_1_1_58_1_1_51_1_132",
                "X_2_1_1_1_1_1_26_1_1_52_1_132",
                "X_2_1_1_1_1_1_59_1_1_53_1_132",
                "X_2_1_1_1_1_1_27_1_1_54_1_132",
                "X_2_1_1_1_1_1_60_1_1_55_1_132",
                "X_2_1_1_1_1_1_28_1_1_56_1_132",
                "X_2_1_1_1_1_1_61_1_1_57_1_132",
                "X_2_1_1_1_1_1_29_1_1_58_1_132",
                "X_2_1_1_1_1_1_62_1_1_59_1_132",
                "X_2_1_1_1_1_1_30_1_1_60_1_132",
                "X_2_1_1_1_1_1_63_1_1_61_1_132",
                "X_2_1_1_1_1_1_31_1_1_62_1_132",
                "X_2_1_1_1_1_1_64_1_1_63_1_132",
                "X_2_1_1_1_1_1_32_1_1_64_1_132"
            ],
            "CsaImage.ProtocolSliceNumber": [
                0,
                1,
                2,
                3,
                4,
                5,
                6,
                7,
                8,
                9,
                10,
                11,
                12,
                13,
                14,
                15,
                16,
                17,
                18,
                19,
                20,
                21,
                22,
                23,
                24,
                25,
                26,
                27,
                28,
                29,
                30,
                31,
                32,
                33,
                34,
                35,
                36,
                37,
                38,
                39,
                40,
                41,
                42,
                43,
                44,
                45,
                46,
                47,
                48,
                49,
                50,
                51,
                52,
                53,
                54,
                55,
                56,
                57,
                58,
                59,
                60,
                61,
                62,
                63
            ],
            "CsaImage.SliceMeasurementDuration": [
                59135.0,
                59137.5,
                59135.0,
                59137.5,
                59135.0,
                59137.5,
                59135.0,
                59137.5,
                59135.0,
                59137.5,
                59135.0,
                59137.5,
                59135.0,
                59137.5,
                59135.0,
                59137.5,
                59135.0,
                59137.5,
                59135.0,
                59137.5,
                59135.0,
                59137.5,
                59135.0,
                59137.5,
                59135.0,
                59137.5,
                59135.0,
                59137.5,
                59137.5,
                59137.5,
                59137.5,
                59137.5,
                59137.5,
                59137.5,
                59137.5,
                59137.5,
                59137.5,
                59137.5,
                59137.5,
                59137.5,
                59137.5,
                59137.5,
                59137.5,
                59137.5,
                59137.5,
                59137.5,
                59137.5,
                59137.5,
                59137.5,
                59137.5,
                59137.5,
                59137.5,
                59137.5,
                59137.5,
                59137.5,
                59135.0,
                59137.5,
                59135.0,
                59137.5,
                59135.0,
                59137.5,
                59135.0,
                59137.5,
                59135.0
            ],
            "CsaImage.SlicePosition_PCS": [
                [
                    -105.54801043,
                    -99.06698082,
                    -80.19843292
                ],
                [
                    -105.54801043,
                    -99.06698082,
                    -77.69843292
                ],
                [
                    -105.54801043,
                    -99.06698082,
                    -75.19843292
                ],
                [
                    -105.54801043,
                    -99.06698082,
                    -72.69843292
                ],
                [
                    -105.54801043,
                    -99.06698082,
                    -70.19843292
                ],
                [
                    -105.54801043,
                    -99.06698082,
                    -67.69843292
                ],
                [
                    -105.54801043,
                    -99.06698082,
                    -65.19843292
                ],
                [
                    -105.54801043,
                    -99.06698082,
                    -62.69843292
                ],
                [
                    -105.54801043,
                    -99.06698082,
                    -60.19843292
                ],
                [
                    -105.54801043,
                    -99.06698082,
                    -57.69843292
                ],
                [
                    -105.54801043,
                    -99.06698082,
                    -55.19843292
                ],
                [
                    -105.54801043,
                    -99.06698082,
                    -52.69843292
                ],
                [
                    -105.54801043,
                    -99.06698082,
                    -50.19843292
                ],
                [
                    -105.54801043,
                    -99.06698082,
                    -47.69843292
                ],
                [
                    -105.54801043,
                    -99.06698082,
                    -45.19843292
                ],
                [
                    -105.54801043,
                    -99.06698082,
                    -42.69843292
                ],
                [
                    -105.54801043,
                    -99.06698082,
                    -40.19843292
                ],
                [
                    -105.54801043,
                    -99.06698082,
                    -37.69843292
                ],
                [
                    -105.54801043,
                    -99.06698082,
                    -35.19843292
                ],
                [
                    -105.54801043,
                    -99.06698082,
                    -32.69843292
                ],
                [
                    -105.54801043,
                    -99.06698082,
                    -30.19843102
                ],
                [
                    -105.54801043,
                    -99.06698082,
                    -27.69843102
                ],
                [
                    -105.54801043,
                    -99.06698082,
                    -25.19843102
                ],
                [
                    -105.54801043,
                    -99.06698082,
                    -22.69843102
                ],
                [
                    -105.54801043,
                    -99.06698082,
                    -20.19843102
                ],
                [
                    -105.54801043,
                    -99.06698082,
                    -17.69843102
                ],
                [
                    -105.54801043,
                    -99.06698082,
                    -15.19843102
                ],
                [
                    -105.54801043,
                    -99.06698082,
                    -12.69843102
                ],
                [
                    -105.54801043,
                    -99.06698082,
                    -10.19843102
                ],
                [
                    -105.54801043,
                    -99.06698082,
                    -7.69843102
                ],
                [
                    -105.54801043,
                    -99.06698082,
                    -5.19843102
                ],
                [
                    -105.54801043,
                    -99.06698082,
                    -2.69843125
                ],
                [
                    -105.54801043,
                    -99.06698082,
                    -0.19843118
                ],
                [
                    -105.54801043,
                    -99.06698082,
                    2.30156875
                ],
                [
                    -105.54801043,
                    -99.06698082,
                    4.80156898
                ],
                [
                    -105.54801043,
                    -99.06698082,
                    7.30156898
                ],
                [
                    -105.54801043,
                    -99.06698082,
                    9.80156898
                ],
                [
                    -105.54801043,
                    -99.06698082,
                    12.30156898
                ],
                [
                    -105.54801043,
                    -99.06698082,
                    14.80156898
                ],
                [
                    -105.54801043,
                    -99.06698082,
                    17.30156898
                ],
                [
                    -105.54801043,
                    -99.06698082,
                    19.80156898
                ],
                [
                    -105.54801043,
                    -99.06698082,
                    22.30156898
                ],
                [
                    -105.54801043,
                    -99.06698082,
                    24.80156898
                ],
                [
                    -105.54801043,
                    -99.06698082,
                    27.30156898
                ],
                [
                    -105.54801043,
                    -99.06698082,
                    29.80156898
                ],
                [
                    -105.54801043,
                    -99.06698082,
                    32.30156708
                ],
                [
                    -105.54801043,
                    -99.06698082,
                    34.80156708
                ],
                [
                    -105.54801043,
                    -99.06698082,
                    37.30156708
                ],
                [
                    -105.54801043,
                    -99.06698082,
                    39.80156708
                ],
                [
                    -105.54801043,
                    -99.06698082,
                    42.30156708
                ],
                [
                    -105.54801043,
                    -99.06698082,
                    44.80156708
                ],
                [
                    -105.54801043,
                    -99.06698082,
                    47.30156708
                ],
                [
                    -105.54801043,
                    -99.06698082,
                    49.80156708
                ],
                [
                    -105.54801043,
                    -99.06698082,
                    52.30156708
                ],
                [
                    -105.54801043,
                    -99.06698082,
                    54.80156708
                ],
                [
                    -105.54801043,
                    -99.06698082,
                    57.30156708
                ],
                [
                    -105.54801043,
                    -99.06698082,
                    59.80156708
                ],
                [
                    -105.54801043,
                    -99.06698082,
                    62.30156708
                ],
                [
                    -105.54801043,
                    -99.06698082,
                    64.80156708
                ],
                [
                    -105.54801043,
                    -99.06698082,
                    67.30156708
                ],
                [
                    -105.54801043,
                    -99.06698082,
                    69.80156708
                ],
                [
                    -105.54801043,
                    -99.06698082,
                    72.30156708
                ],
                [
                    -105.54801043,
                    -99.06698082,
                    74.80156708
                ],
                [
                    -105.54801043,
                    -99.06698082,
                    77.30156708
                ]
            ],
            "CsaImage.TimeAfterStart": [
                0.7175,
                0.48,
                0.725,
                0.485,
                0.7325,
                0.4925,
                0.74,
                0.5,
                0.7475,
                0.5075,
                0.755,
                0.515,
                0.7625,
                0.5225,
                0.77,
                0.53,
                0.7775,
                0.5375,
                0.785,
                0.545,
                0.7925,
                0.5525,
                0.8,
                0.56,
                0.8075,
                0.5675,
                0.815,
                0.575,
                0.8225,
                0.5825,
                0.83,
                0.59,
                0.8375,
                0.5975,
                0.845,
                0.605,
                0.8525,
                0.6125,
                0.8575,
                0.62,
                0.865,
                0.6275,
                0.8725,
                0.635,
                0.88,
                0.6425,
                0.8875,
                0.65,
                0.895,
                0.6575,
                0.9025,
                0.665,
                0.91,
                0.6725,
                0.9175,
                0.68,
                0.925,
                0.6875,
                0.9325,
                0.695,
                0.94,
                0.7025,
                0.9475,
                0.71
            ],
            "ImagePositionPatient": [
                [
                    -105.54801043041,
                    -99.06698081724,
                    -80.198432922363
                ],
                [
                    -105.54801043041,
                    -99.06698081724,
                    -77.698432922363
                ],
                [
                    -105.54801043041,
                    -99.06698081724,
                    -75.198432922363
                ],
                [
                    -105.54801043041,
                    -99.06698081724,
                    -72.698432922363
                ],
                [
                    -105.54801043041,
                    -99.06698081724,
                    -70.198432922363
                ],
                [
                    -105.54801043041,
                    -99.06698081724,
                    -67.698432922363
                ],
                [
                    -105.54801043041,
                    -99.06698081724,
                    -65.198432922363
                ],
                [
                    -105.54801043041,
                    -99.06698081724,
                    -62.698432922363
                ],
                [
                    -105.54801043041,
                    -99.06698081724,
                    -60.198432922363
                ],
                [
                    -105.54801043041,
                    -99.06698081724,
                    -57.698432922363
                ],
                [
                    -105.54801043041,
                    -99.06698081724,
                    -55.198432922363
                ],
                [
                    -105.54801043041,
                    -99.06698081724,
                    -52.698432922363
                ],
                [
                    -105.54801043041,
                    -99.06698081724,
                    -50.198432922363
                ],
                [
                    -105.54801043041,
                    -99.06698081724,
                    -47.698432922363
                ],
                [
                    -105.54801043041,
                    -99.06698081724,
                    -45.198432922363
                ],
                [
