{
    "AcquisitionMatrixPE": 84,
    "AcquisitionNumber": 1,
    "AcquisitionTime": "12:14:30.515000",
    "BaseResolution": 168,
    "CoilString": "C:E1_2",
    "ConversionSoftware": "dcm2niix",
    "ConversionSoftwareVersion": "v1.0.20191031",
    "DeviceSerialNumber": "18932",
    "DwellTime": 4.9e-06,
    "EchoNumber": 2,
    "EchoTime": 0.0051,
    "EchoTime1": 0.00408,
    "EchoTime2": 0.0051,
    "FlipAngle": 35,
    "ImageOrientationPatientDICOM": [
        1,
        -2.05103e-10,
        0,
        2.05103e-10,
        1,
        0
    ],
    "ImageType": [
        "ORIGINAL",
        "PRIMARY",
        "P",
        "ND",
        "PHASE"
    ],
    "ImagingFrequency": 297.229,
    "InPlanePhaseEncodingDirectionDICOM": "ROW",
    "InstitutionAddress": "Richmond_Street_North_1151_London_409EF2_Ontario_CA_N6A_5B7",
    "InstitutionName": "Robarts_Reserch_Institute",
    "InstitutionalDepartmentName": "Department",
    "MRAcquisitionType": "2D",
    "MagneticFieldStrength": 6.98,
    "Manufacturer": "Siemens",
    "ManufacturersModelName": "Investigational_Device_7T",
    "Modality": "MR",
    "PartialFourier": 0.75,
    "PatientPosition": "HFS",
    "PercentPhaseFOV": 100,
    "PhaseEncodingDirection": "i",
    "PhaseEncodingSteps": 63,
    "PhaseResolution": 0.5,
    "PixelBandwidth": 607,
    "ProcedureStepDescription": "Diedrichsen_SeqRep4",
    "ProtocolName": "gre_field_mapping",
    "PulseSequenceDetails": "%SiemensSeq%_gre_field_mapping",
    "ReceiveCoilName": "CFMM_8Tx32Rx",
    "ReconMatrixPE": 168,
    "RepetitionTime": 0.475,
    "ScanOptions": "PFP",
    "ScanningSequence": "GR",
    "SequenceName": "fm2d2r",
    "SequenceVariant": "SP",
    "SeriesDescription": "gre_field_mapping",
    "SeriesNumber": 36,
    "ShimSetting": [
        13,
        2083,
        18,
        1313,
        185,
        69,
        53,
        -49
    ],
    "SliceThickness": 2.5,
    "SliceTiming": [
        0.23438,
        0,
        0.24219,
        0,
        0.25,
        0.00781,
        0.25781,
        0.01562,
        0.26562,
        0.02344,
        0.27344,
        0.03125,
        0.28125,
        0.03906,
        0.28906,
        0.04688,
        0.29688,
        0.05469,
        0.30469,
        0.0625,
        0.3125,
        0.07031,
        0.3125,
        0.07812,
        0.32031,
        0.08594,
        0.32812,
        0.09375,
        0.33594,
        0.10156,
        0.34375,
        0.10938,
        0.35156,
        0.11719,
        0.35938,
        0.125,
        0.36719,
        0.13281,
        0.375,
        0.14062,
        0.38281,
        0.14844,
        0.39062,
        0.15625,
        0.39844,
        0.16406,
        0.40625,
        0.16406,
        0.41406,
        0.17188,
        0.42188,
        0.17969,
        0.42969,
        0.1875,
        0.4375,
        0.19531,
        0.44531,
        0.20312,
        0.45312,
        0.21094,
        0.46094,
        0.21875,
        0.46875,
        0.22656
    ],
    "SoftwareVersions": "syngo_MR_B17",
    "SpacingBetweenSlices": 2.5,
    "StationName": "MASTER",
    "TxRefAmp": 124,
    "dcmmeta_affine": [
        [
            -1.25,
            2.5637925116228644e-10,
            0.0,
            105.54801177978516
        ],
        [
            2.5637925116228644e-10,
            1.25,
            0.0,
            -100.96630859375
        ],
        [
            0.0,
            0.0,
            2.5,
            -65.67058563232422
        ],
        [
            0.0,
            0.0,
            0.0,
            1.0
        ]
    ],
    "dcmmeta_reorient_transform": [
        [
            0.0,
            -1.0,
            0.0,
            167.0
        ],
        [
            1.0,
            0.0,
            0.0,
            0.0
        ],
        [
            0.0,
            0.0,
            -1.0,
            63.0
        ],
        [
            0.0,
            0.0,
            0.0,
            1.0
        ]
    ],
    "dcmmeta_shape": [
        168,
        168,
        64
    ],
    "dcmmeta_slice_dim": 2,
    "dcmmeta_version": 0.6,
    "global": {
        "const": {
            "AcquisitionMatrix": [
                0,
                168,
                84,
                0
            ],
            "AcquisitionNumber": 1,
            "AngioFlag": "N",
            "BitsAllocated": 16,
            "BitsStored": 12,
            "Columns": 168,
            "EchoNumbers": 2,
            "EchoTime": 5.1,
            "EchoTrainLength": 1,
            "FlipAngle": 35.0,
            "HighBit": 11,
            "ImageOrientationPatient": [
                1.0,
                -2.051034e-10,
                0.0,
                2.051034e-10,
                1.0,
                0.0
            ],
            "ImageType": [
                "ORIGINAL",
                "PRIMARY",
                "P",
                "ND"
            ],
            "ImagedNucleus": "1H",
            "ImagingFrequency": 297.228826,
            "InPlanePhaseEncodingDirection": "ROW",
            "MRAcquisitionType": "2D",
            "MagneticFieldStrength": 6.98,
            "Manufacturer": "SIEMENS",
            "ManufacturerModelName": "Investigational_Device_7T",
            "Modality": "MR",
            "NumberOfAverages": 1.0,
            "NumberOfPhaseEncodingSteps": 63,
            "PercentPhaseFieldOfView": 100.0,
            "PercentSampling": 50.0,
            "PerformedProcedureStepStartTime": "104742.937000",
            "PhotometricInterpretation": "MONOCHROME2",
            "PixelBandwidth": 607.0,
            "PixelRepresentation": 0,
            "PixelSpacing": [
                1.25,
                1.25
            ],
            "ProtocolName": "gre_field_mapping",
            "RepetitionTime": 475.0,
            "RescaleIntercept": -4096.0,
            "RescaleSlope": 2.0,
            "RescaleType": "US",
            "Rows": 168,
            "SAR": 0.0,
            "SamplesPerPixel": 1,
            "ScanOptions": "PFP",
            "ScanningSequence": "GR",
            "SequenceName": "fm2d2r",
            "SequenceVariant": "SP",
            "SeriesDescription": "gre_field_mapping",
            "SeriesNumber": 36,
            "SeriesTime": "121535.375000",
            "SliceThickness": 2.5,
            "SoftwareVersions": "syngo MR B17",
            "SpacingBetweenSlices": 2.5,
            "SpecificCharacterSet": "ISO_IR 100",
            "StudyID": "1",
            "StudyTime": "104742.875000",
            "TransmitCoilName": "CFMM_8Tx32Rx",
            "VariableFlipAngleFlag": "N",
            "WindowCenterWidthExplanation": "Algo1",
            "dBdt": 0.0
        },
        "slices": {
            "AcquisitionTime": [
                "121430.515000",
                "121430.277500",
                "121430.522500",
                "121430.285000",
                "121430.530000",
                "121430.292500",
                "121430.537500",
                "121430.300000",
                "121430.545000",
                "121430.307500",
                "121430.552500",
                "121430.315000",
                "121430.560000",
                "121430.322500",
                "121430.567500",
                "121430.330000",
                "121430.575000",
                "121430.337500",
                "121430.582500",
                "121430.345000",
                "121430.590000",
                "121430.352500",
                "121430.597500",
                "121430.360000",
                "121430.605000",
                "121430.367500",
                "121430.612500",
                "121430.375000",
                "121430.620000",
                "121430.382500",
                "121430.627500",
                "121430.390000",
                "121430.635000",
                "121430.397500",
                "121430.642500",
                "121430.405000",
                "121430.650000",
                "121430.412500",
                "121430.657500",
                "121430.420000",
                "121430.665000",
                "121430.427500",
                "121430.672500",
                "121430.435000",
                "121430.680000",
                "121430.442500",
                "121430.687500",
                "121430.447500",
                "121430.695000",
                "121430.455000",
                "121430.702500",
                "121430.462500",
                "121430.710000",
                "121430.470000",
                "121430.717500",
                "121430.477500",
                "121430.725000",
                "121430.485000",
                "121430.732500",
                "121430.492500",
                "121430.740000",
                "121430.500000",
                "121430.747500",
                "121430.507500"
            ],
            "ContentTime": [
                "121535.453000",
                "121535.375000",
                "121535.453000",
                "121535.375000",
                "121535.453000",
                "121535.375000",
                "121535.453000",
                "121535.390000",
                "121535.453000",
                "121535.390000",
                "121535.453000",
                "121535.390000",
                "121535.453000",
                "121535.390000",
                "121535.453000",
                "121535.390000",
                "121535.468000",
                "121535.390000",
                "121535.468000",
                "121535.390000",
                "121535.468000",
                "121535.406000",
                "121535.468000",
                "121535.406000",
                "121535.468000",
                "121535.406000",
                "121535.468000",
                "121535.406000",
                "121535.468000",
                "121535.406000",
                "121535.468000",
                "121535.406000",
                "121535.468000",
                "121535.406000",
                "121535.484000",
                "121535.406000",
                "121535.484000",
                "121535.406000",
                "121535.484000",
                "121535.421000",
                "121535.484000",
                "121535.421000",
                "121535.484000",
                "121535.421000",
                "121535.484000",
                "121535.421000",
                "121535.484000",
                "121535.421000",
                "121535.484000",
                "121535.421000",
                "121535.500000",
                "121535.437000",
                "121535.500000",
                "121535.437000",
                "121535.500000",
                "121535.437000",
                "121535.500000",
                "121535.437000",
                "121535.500000",
                "121535.437000",
                "121535.500000",
                "121535.437000",
                "121535.500000",
                "121535.437000"
            ],
            "CsaImage.ICE_Dims": [
                "X_2_1_1_1_1_1_33_1_1_1_1_94",
                "X_2_1_1_1_1_1_1_1_1_2_1_94",
                "X_2_1_1_1_1_1_34_1_1_3_1_94",
                "X_2_1_1_1_1_1_2_1_1_4_1_94",
                "X_2_1_1_1_1_1_35_1_1_5_1_94",
                "X_2_1_1_1_1_1_3_1_1_6_1_94",
                "X_2_1_1_1_1_1_36_1_1_7_1_94",
                "X_2_1_1_1_1_1_4_1_1_8_1_94",
                "X_2_1_1_1_1_1_37_1_1_9_1_94",
                "X_2_1_1_1_1_1_5_1_1_10_1_94",
                "X_2_1_1_1_1_1_38_1_1_11_1_94",
                "X_2_1_1_1_1_1_6_1_1_12_1_94",
                "X_2_1_1_1_1_1_39_1_1_13_1_94",
                "X_2_1_1_1_1_1_7_1_1_14_1_94",
                "X_2_1_1_1_1_1_40_1_1_15_1_94",
                "X_2_1_1_1_1_1_8_1_1_16_1_94",
                "X_2_1_1_1_1_1_41_1_1_17_1_94",
                "X_2_1_1_1_1_1_9_1_1_18_1_94",
                "X_2_1_1_1_1_1_42_1_1_19_1_94",
                "X_2_1_1_1_1_1_10_1_1_20_1_94",
                "X_2_1_1_1_1_1_43_1_1_21_1_94",
                "X_2_1_1_1_1_1_11_1_1_22_1_94",
                "X_2_1_1_1_1_1_44_1_1_23_1_94",
                "X_2_1_1_1_1_1_12_1_1_24_1_94",
                "X_2_1_1_1_1_1_45_1_1_25_1_94",
                "X_2_1_1_1_1_1_13_1_1_26_1_94",
                "X_2_1_1_1_1_1_46_1_1_27_1_94",
                "X_2_1_1_1_1_1_14_1_1_28_1_94",
                "X_2_1_1_1_1_1_47_1_1_29_1_94",
                "X_2_1_1_1_1_1_15_1_1_30_1_94",
                "X_2_1_1_1_1_1_48_1_1_31_1_94",
                "X_2_1_1_1_1_1_16_1_1_32_1_94",
                "X_2_1_1_1_1_1_49_1_1_33_1_94",
                "X_2_1_1_1_1_1_17_1_1_34_1_94",
                "X_2_1_1_1_1_1_50_1_1_35_1_94",
                "X_2_1_1_1_1_1_18_1_1_36_1_94",
                "X_2_1_1_1_1_1_51_1_1_37_1_94",
                "X_2_1_1_1_1_1_19_1_1_38_1_94",
                "X_2_1_1_1_1_1_52_1_1_39_1_94",
                "X_2_1_1_1_1_1_20_1_1_40_1_94",
                "X_2_1_1_1_1_1_53_1_1_41_1_94",
                "X_2_1_1_1_1_1_21_1_1_42_1_94",
                "X_2_1_1_1_1_1_54_1_1_43_1_94",
                "X_2_1_1_1_1_1_22_1_1_44_1_94",
                "X_2_1_1_1_1_1_55_1_1_45_1_94",
                "X_2_1_1_1_1_1_23_1_1_46_1_94",
                "X_2_1_1_1_1_1_56_1_1_47_1_94",
                "X_2_1_1_1_1_1_24_1_1_48_1_94",
                "X_2_1_1_1_1_1_57_1_1_49_1_94",
                "X_2_1_1_1_1_1_25_1_1_50_1_94",
                "X_2_1_1_1_1_1_58_1_1_51_1_94",
                "X_2_1_1_1_1_1_26_1_1_52_1_94",
                "X_2_1_1_1_1_1_59_1_1_53_1_94",
                "X_2_1_1_1_1_1_27_1_1_54_1_94",
                "X_2_1_1_1_1_1_60_1_1_55_1_94",
                "X_2_1_1_1_1_1_28_1_1_56_1_94",
                "X_2_1_1_1_1_1_61_1_1_57_1_94",
                "X_2_1_1_1_1_1_29_1_1_58_1_94",
                "X_2_1_1_1_1_1_62_1_1_59_1_94",
                "X_2_1_1_1_1_1_30_1_1_60_1_94",
                "X_2_1_1_1_1_1_63_1_1_61_1_94",
                "X_2_1_1_1_1_1_31_1_1_62_1_94",
                "X_2_1_1_1_1_1_64_1_1_63_1_94",
                "X_2_1_1_1_1_1_32_1_1_64_1_94"
            ],
            "CsaImage.ProtocolSliceNumber": [
                0,
                1,
                2,
                3,
                4,
                5,
                6,
                7,
                8,
                9,
                10,
                11,
                12,
                13,
                14,
                15,
                16,
                17,
                18,
                19,
                20,
                21,
                22,
                23,
                24,
                25,
                26,
                27,
                28,
                29,
                30,
                31,
                32,
                33,
                34,
                35,
                36,
                37,
                38,
                39,
                40,
                41,
                42,
                43,
                44,
                45,
                46,
                47,
                48,
                49,
                50,
                51,
                52,
                53,
                54,
                55,
                56,
                57,
                58,
                59,
                60,
                61,
                62,
                63
            ],
            "CsaImage.SliceMeasurementDuration": [
                59137.5,
                59137.5,
                59137.5,
                59137.5,
                59137.5,
                59137.5,
                59137.5,
                59137.5,
                59137.5,
                59135.0,
                59137.5,
                59135.0,
                59137.5,
                59135.0,
                59137.5,
                59135.0,
                59137.5,
                59135.0,
                59137.5,
                59135.0,
                59137.5,
                59135.0,
                59137.5,
                59135.0,
                59137.5,
                59135.0,
                59137.5,
                59135.0,
                59137.5,
                59135.0,
                59137.5,
                59135.0,
                59137.5,
                59135.0,
                59137.5,
                59135.0,
                59137.5,
                59135.0,
                59137.5,
                59135.0,
                59137.5,
                59135.0,
                59137.5,
                59135.0,
                59135.0,
                59135.0,
                59135.0,
                59137.5,
                59135.0,
                59137.5,
                59135.0,
                59137.5,
                59135.0,
                59137.5,
                59135.0,
                59137.5,
                59135.0,
                59137.5,
                59135.0,
                59137.5,
                59135.0,
                59137.5,
                59135.0,
                59137.5
            ],
            "CsaImage.SlicePosition_PCS": [
                [
                    -105.54801043,
                    -107.78368805,
                    -65.67058563
                ],
                [
                    -105.54801043,
                    -107.78368805,
                    -63.17058563
                ],
                [
                    -105.54801043,
                    -107.78368805,
                    -60.67058563
                ],
                [
                    -105.54801043,
                    -107.78368805,
                    -58.17058563
                ],
                [
                    -105.54801043,
                    -107.78368805,
                    -55.67058563
                ],
                [
                    -105.54801043,
                    -107.78368805,
                    -53.17058563
                ],
                [
                    -105.54801043,
                    -107.78368805,
                    -50.67058563
                ],
                [
                    -105.54801043,
                    -107.78368805,
                    -48.17058563
                ],
                [
                    -105.54801043,
                    -107.78368805,
                    -45.67058563
                ],
                [
                    -105.54801043,
                    -107.78368805,
                    -43.17058563
                ],
                [
                    -105.54801043,
                    -107.78368805,
                    -40.67058563
                ],
                [
                    -105.54801043,
                    -107.78368805,
                    -38.17058563
                ],
                [
                    -105.54801043,
                    -107.78368805,
                    -35.67058563
                ],
                [
                    -105.54801043,
                    -107.78368805,
                    -33.17058563
                ],
                [
                    -105.54801043,
                    -107.78368805,
                    -30.67058563
                ],
                [
                    -105.54801043,
                    -107.78368805,
                    -28.17058563
                ],
                [
                    -105.54801043,
                    -107.78368805,
                    -25.67058563
                ],
                [
                    -105.54801043,
                    -107.78368805,
                    -23.17058563
                ],
                [
                    -105.54801043,
                    -107.78368805,
                    -20.67058563
                ],
                [
                    -105.54801043,
                    -107.78368805,
                    -18.17058563
                ],
                [
                    -105.54801043,
                    -107.78368805,
                    -15.67058659
                ],
                [
                    -105.54801043,
                    -107.78368805,
                    -13.17058659
                ],
                [
                    -105.54801043,
                    -107.78368805,
                    -10.67058659
                ],
                [
                    -105.54801043,
                    -107.78368805,
                    -8.17058659
                ],
                [
                    -105.54801043,
                    -107.78368805,
                    -5.67058611
                ],
                [
                    -105.54801043,
                    -107.78368805,
                    -3.17058611
                ],
                [
                    -105.54801043,
                    -107.78368805,
                    -0.67058617
                ],
                [
                    -105.54801043,
                    -107.78368805,
                    1.82941389
                ],
                [
                    -105.54801043,
                    -107.78368805,
                    4.32941389
                ],
                [
                    -105.54801043,
                    -107.78368805,
                    6.82941389
                ],
                [
                    -105.54801043,
                    -107.78368805,
                    9.32941341
                ],
                [
                    -105.54801043,
                    -107.78368805,
                    11.82941341
                ],
                [
                    -105.54801043,
                    -107.78368805,
                    14.32941341
                ],
                [
                    -105.54801043,
                    -107.78368805,
                    16.82941437
                ],
                [
                    -105.54801043,
                    -107.78368805,
                    19.32941437
                ],
                [
                    -105.54801043,
                    -107.78368805,
                    21.82941437
                ],
                [
                    -105.54801043,
                    -107.78368805,
                    24.32941437
                ],
                [
                    -105.54801043,
                    -107.78368805,
                    26.82941437
                ],
                [
                    -105.54801043,
                    -107.78368805,
                    29.32941437
                ],
                [
                    -105.54801043,
                    -107.78368805,
                    31.82941437
                ],
                [
                    -105.54801043,
                    -107.78368805,
                    34.32941437
                ],
                [
                    -105.54801043,
                    -107.78368805,
                    36.82941437
                ],
                [
                    -105.54801043,
                    -107.78368805,
                    39.32941437
                ],
                [
                    -105.54801043,
                    -107.78368805,
                    41.82941437
                ],
                [
                    -105.54801043,
                    -107.78368805,
                    44.32941437
                ],
                [
                    -105.54801043,
                    -107.78368805,
                    46.82941437
                ],
                [
                    -105.54801043,
                    -107.78368805,
                    49.32941437
                ],
                [
                    -105.54801043,
                    -107.78368805,
                    51.82941437
                ],
                [
                    -105.54801043,
                    -107.78368805,
                    54.32941437
                ],
                [
                    -105.54801043,
                    -107.78368805,
                    56.82941437
                ],
                [
                    -105.54801043,
                    -107.78368805,
                    59.32941437
                ],
                [
                    -105.54801043,
                    -107.78368805,
                    61.82941437
                ],
                [
                    -105.54801043,
                    -107.78368805,
                    64.32941437
                ],
                [
                    -105.54801043,
                    -107.78368805,
                    66.82941437
                ],
                [
                    -105.54801043,
                    -107.78368805,
                    69.32941437
                ],
                [
                    -105.54801043,
                    -107.78368805,
                    71.82941437
                ],
                [
                    -105.54801043,
                    -107.78368805,
                    74.32941437
                ],
                [
                    -105.54801043,
                    -107.78368805,
                    76.82941437
                ],
                [
                    -105.54801043,
                    -107.78368805,
                    79.32941437
                ],
                [
                    -105.54801043,
                    -107.78368805,
                    81.82941437
                ],
                [
                    -105.54801043,
                    -107.78368805,
                    84.32941437
                ],
                [
                    -105.54801043,
                    -107.78368805,
                    86.82941437
                ],
                [
                    -105.54801043,
                    -107.78368805,
                    89.32941437
                ],
                [
                    -105.54801043,
                    -107.78368805,
                    91.82941437
                ]
            ],
            "CsaImage.TimeAfterStart": [
                0.715,
                0.4775,
                0.7225,
                0.485,
                0.73,
                0.4925,
                0.7375,
                0.5,
                0.745,
                0.5075,
                0.7525,
                0.515,
                0.76,
                0.5225,
                0.7675,
                0.53,
                0.775,
                0.5375,
                0.7825,
                0.545,
                0.79,
                0.5525,
                0.7975,
                0.56,
                0.805,
                0.5675,
                0.8125,
                0.575,
                0.82,
                0.5825,
                0.8275,
                0.59,
                0.835,
                0.5975,
                0.8425,
                0.605,
                0.85,
                0.6125,
                0.8575,
                0.62,
                0.865,
                0.6275,
                0.8725,
                0.635,
                0.88,
                0.6425,
                0.8875,
                0.65,
                0.895,
                0.6575,
                0.9025,
                0.665,
                0.91,
                0.6725,
                0.9175,
                0.68,
                0.925,
                0.685,
                0.9325,
                0.6925,
                0.94,
                0.7,
                0.9475,
                0.7075
            ],
            "ImagePositionPatient": [
                [
                    -105.54801043041,
                    -107.78368804685,
                    -65.670585632324
                ],
                [
                    -105.54801043041,
                    -107.78368804685,
                    -63.170585632324
                ],
                [
                    -105.54801043041,
                    -107.78368804685,
                    -60.670585632324
                ],
                [
                    -105.54801043041,
                    -107.78368804685,
                    -58.170585632324
                ],
                [
                    -105.54801043041,
                    -107.78368804685,
                    -55.670585632324
                ],
                [
                    -105.54801043041,
                    -107.78368804685,
                    -53.170585632324
                ],
                [
                    -105.54801043041,
                    -107.78368804685,
                    -50.670585632324
                ],
                [
                    -105.54801043041,
                    -107.78368804685,
                    -48.170585632324
                ],
                [
                    -105.54801043041,
                    -107.78368804685,
                    -45.670585632324
                ],
                [
                    -105.54801043041,
                    -107.78368804685,
                    -43.170585632324
                ],
                [
                    -105.54801043041,
                    -107.78368804685,
                    -40.670585632324
                ],
                [
                    -105.54801043041,
                    -107.78368804685,
                    -38.170585632324
                ],
                [
                    -105.54801043041,
                    -107.78368804685,
                    -35.670585632324
                ],
                [
                    -105.54801043041,
                    -107.78368804685,
                    -33.170585632324
                ],
                [
                    -105.54801043041,
                    -107.78368804685,
                    -30.670585632324
                ],
                [
                    -105.54801043041,
