{
    "AcquisitionMatrixPE": 84,
    "AcquisitionNumber": 1,
    "AcquisitionTime": "15:50:3.817500",
    "BaseResolution": 168,
    "CoilString": "C:E1_2",
    "ConversionSoftware": "dcm2niix",
    "ConversionSoftwareVersion": "v1.0.20191031",
    "DeviceSerialNumber": "18932",
    "DwellTime": 4.9e-06,
    "EchoNumber": 2,
    "EchoTime": 0.0051,
    "EchoTime1": 0.00408,
    "EchoTime2": 0.0051,
    "FlipAngle": 35,
    "ImageOrientationPatientDICOM": [
        1,
        -2.05103e-10,
        0,
        2.05103e-10,
        1,
        0
    ],
    "ImageType": [
        "ORIGINAL",
        "PRIMARY",
        "P",
        "ND",
        "PHASE"
    ],
    "ImagingFrequency": 297.229,
    "InPlanePhaseEncodingDirectionDICOM": "ROW",
    "InstitutionAddress": "Richmond_Street_North_1151_London_409EF2_Ontario_CA_N6A_5B7",
    "InstitutionName": "Robarts_Reserch_Institute",
    "InstitutionalDepartmentName": "Department",
    "MRAcquisitionType": "2D",
    "MagneticFieldStrength": 6.98,
    "Manufacturer": "Siemens",
    "ManufacturersModelName": "Investigational_Device_7T",
    "Modality": "MR",
    "MultibandAccelerationFactor": 2,
    "PartialFourier": 0.75,
    "PatientPosition": "HFS",
    "PercentPhaseFOV": 100,
    "PhaseEncodingDirection": "i",
    "PhaseEncodingSteps": 63,
    "PhaseResolution": 0.5,
    "PixelBandwidth": 607,
    "ProcedureStepDescription": "Diedrichsen_SeqRep4",
    "ProtocolName": "gre_field_mapping",
    "PulseSequenceDetails": "%SiemensSeq%_gre_field_mapping",
    "ReceiveCoilName": "CFMM_8Tx32Rx",
    "ReconMatrixPE": 168,
    "RepetitionTime": 0.475,
    "ScanOptions": "PFP",
    "ScanningSequence": "GR",
    "SequenceName": "fm2d2r",
    "SequenceVariant": "SP",
    "SeriesDescription": "gre_field_mapping",
    "SeriesNumber": 36,
    "ShimSetting": [
        43,
        2073,
        130,
        1348,
        227,
        18,
        60,
        -240
    ],
    "SliceThickness": 2.5,
    "SliceTiming": [
        0.23438,
        0,
        0.25,
        0.01562,
        0.25,
        0.01562,
        0.26562,
        0.03125,
        0.26562,
        0.03125,
        0.28125,
        0.04688,
        0.28125,
        0.04688,
        0.29688,
        0.04688,
        0.29688,
        0.0625,
        0.3125,
        0.0625,
        0.3125,
        0.07812,
        0.32812,
        0.07812,
        0.32812,
        0.09375,
        0.34375,
        0.09375,
        0.34375,
        0.10938,
        0.35938,
        0.10938,
        0.35938,
        0.125,
        0.35938,
        0.125,
        0.375,
        0.14062,
        0.375,
        0.14062,
        0.39062,
        0.15625,
        0.39062,
        0.15625,
        0.40625,
        0.17188,
        0.40625,
        0.17188,
        0.42188,
        0.1875,
        0.42188,
        0.1875,
        0.4375,
        0.20312,
        0.4375,
        0.20312,
        0.45312,
        0.20312,
        0.45312,
        0.21875,
        0.46875,
        0.21875,
        0.46875,
        0.23438
    ],
    "SoftwareVersions": "syngo_MR_B17",
    "SpacingBetweenSlices": 2.5,
    "StationName": "MASTER",
    "TxRefAmp": 119.726,
    "dcmmeta_affine": [
        [
            -1.25,
            2.5637925116228644e-10,
            0.0,
            105.54801177978516
        ],
        [
            2.5637925116228644e-10,
            1.25,
            0.0,
            -111.86219787597656
        ],
        [
            0.0,
            0.0,
            2.5,
            -70.02893829345703
        ],
        [
            0.0,
            0.0,
            0.0,
            1.0
        ]
    ],
    "dcmmeta_reorient_transform": [
        [
            0.0,
            -1.0,
            0.0,
            167.0
        ],
        [
            1.0,
            0.0,
            0.0,
            0.0
        ],
        [
            0.0,
            0.0,
            -1.0,
            63.0
        ],
        [
            0.0,
            0.0,
            0.0,
            1.0
        ]
    ],
    "dcmmeta_shape": [
        168,
        168,
        64
    ],
    "dcmmeta_slice_dim": 2,
    "dcmmeta_version": 0.6,
    "global": {
        "const": {
            "AcquisitionMatrix": [
                0,
                168,
                84,
                0
            ],
            "AcquisitionNumber": 1,
            "AngioFlag": "N",
            "BitsAllocated": 16,
            "BitsStored": 12,
            "Columns": 168,
            "EchoNumbers": 2,
            "EchoTime": 5.1,
            "EchoTrainLength": 1,
            "FlipAngle": 35.0,
            "HighBit": 11,
            "ImageOrientationPatient": [
                1.0,
                -2.051034e-10,
                0.0,
                2.051034e-10,
                1.0,
                0.0
            ],
            "ImageType": [
                "ORIGINAL",
                "PRIMARY",
                "P",
                "ND"
            ],
            "ImagedNucleus": "1H",
            "ImagingFrequency": 297.228782,
            "InPlanePhaseEncodingDirection": "ROW",
            "MRAcquisitionType": "2D",
            "MagneticFieldStrength": 6.98,
            "Manufacturer": "SIEMENS",
            "ManufacturerModelName": "Investigational_Device_7T",
            "Modality": "MR",
            "NumberOfAverages": 1.0,
            "NumberOfPhaseEncodingSteps": 63,
            "PercentPhaseFieldOfView": 100.0,
            "PercentSampling": 50.0,
            "PerformedProcedureStepStartTime": "141304.296000",
            "PhotometricInterpretation": "MONOCHROME2",
            "PixelBandwidth": 607.0,
            "PixelRepresentation": 0,
            "PixelSpacing": [
                1.25,
                1.25
            ],
            "ProtocolName": "gre_field_mapping",
            "RepetitionTime": 475.0,
            "RescaleIntercept": -4096.0,
            "RescaleSlope": 2.0,
            "RescaleType": "US",
            "Rows": 168,
            "SAR": 0.0,
            "SamplesPerPixel": 1,
            "ScanOptions": "PFP",
            "ScanningSequence": "GR",
            "SequenceName": "fm2d2r",
            "SequenceVariant": "SP",
            "SeriesDescription": "gre_field_mapping",
            "SeriesNumber": 36,
            "SeriesTime": "155109.484000",
            "SliceThickness": 2.5,
            "SoftwareVersions": "syngo MR B17",
            "SpacingBetweenSlices": 2.5,
            "SpecificCharacterSet": "ISO_IR 100",
            "StudyID": "1",
            "StudyTime": "141304.171000",
            "TransmitCoilName": "CFMM_8Tx32Rx",
            "VariableFlipAngleFlag": "N",
            "WindowCenterWidthExplanation": "Algo1",
            "dBdt": 0.0
        },
        "slices": {
            "AcquisitionTime": [
                "155003.817500",
                "155003.580000",
                "155003.825000",
                "155003.587500",
                "155003.832500",
                "155003.595000",
                "155003.840000",
                "155003.602500",
                "155003.847500",
                "155003.610000",
                "155003.855000",
                "155003.617500",
                "155003.862500",
                "155003.625000",
                "155003.870000",
                "155003.632500",
                "155003.877500",
                "155003.640000",
                "155003.885000",
                "155003.647500",
                "155003.892500",
                "155003.655000",
                "155003.900000",
                "155003.662500",
                "155003.907500",
                "155003.670000",
                "155003.915000",
                "155003.677500",
                "155003.922500",
                "155003.685000",
                "155003.930000",
                "155003.692500",
                "155003.937500",
                "155003.700000",
                "155003.945000",
                "155003.707500",
                "155003.952500",
                "155003.715000",
                "155003.960000",
                "155003.722500",
                "155003.967500",
                "155003.730000",
                "155003.975000",
                "155003.737500",
                "155003.982500",
                "155003.745000",
                "155003.990000",
                "155003.752500",
                "155003.997500",
                "155003.760000",
                "155004.005000",
                "155003.767500",
                "155004.012500",
                "155003.775000",
                "155004.020000",
                "155003.782500",
                "155004.027500",
                "155003.787500",
                "155004.035000",
                "155003.795000",
                "155004.042500",
                "155003.802500",
                "155004.050000",
                "155003.810000"
            ],
            "ContentTime": [
                "155109.578000",
                "155109.484000",
                "155109.578000",
                "155109.484000",
                "155109.578000",
                "155109.500000",
                "155109.578000",
                "155109.500000",
                "155109.578000",
                "155109.500000",
                "155109.578000",
                "155109.500000",
                "155109.593000",
                "155109.500000",
                "155109.593000",
                "155109.500000",
                "155109.593000",
                "155109.515000",
                "155109.593000",
                "155109.515000",
                "155109.593000",
                "155109.515000",
                "155109.609000",
                "155109.515000",
                "155109.609000",
                "155109.515000",
                "155109.609000",
                "155109.531000",
                "155109.609000",
                "155109.531000",
                "155109.609000",
                "155109.531000",
                "155109.609000",
                "155109.531000",
                "155109.609000",
                "155109.531000",
                "155109.625000",
                "155109.546000",
                "155109.625000",
                "155109.546000",
                "155109.625000",
                "155109.546000",
                "155109.640000",
                "155109.546000",
                "155109.640000",
                "155109.546000",
                "155109.640000",
                "155109.562000",
                "155109.640000",
                "155109.562000",
                "155109.656000",
                "155109.562000",
                "155109.656000",
                "155109.562000",
                "155109.671000",
                "155109.562000",
                "155109.671000",
                "155109.562000",
                "155109.671000",
                "155109.562000",
                "155109.671000",
                "155109.562000",
                "155109.671000",
                "155109.578000"
            ],
            "CsaImage.ICE_Dims": [
                "X_2_1_1_1_1_1_33_1_1_1_1_183",
                "X_2_1_1_1_1_1_1_1_1_2_1_183",
                "X_2_1_1_1_1_1_34_1_1_3_1_183",
                "X_2_1_1_1_1_1_2_1_1_4_1_183",
                "X_2_1_1_1_1_1_35_1_1_5_1_183",
                "X_2_1_1_1_1_1_3_1_1_6_1_183",
                "X_2_1_1_1_1_1_36_1_1_7_1_183",
                "X_2_1_1_1_1_1_4_1_1_8_1_183",
                "X_2_1_1_1_1_1_37_1_1_9_1_183",
                "X_2_1_1_1_1_1_5_1_1_10_1_183",
                "X_2_1_1_1_1_1_38_1_1_11_1_183",
                "X_2_1_1_1_1_1_6_1_1_12_1_183",
                "X_2_1_1_1_1_1_39_1_1_13_1_183",
                "X_2_1_1_1_1_1_7_1_1_14_1_183",
                "X_2_1_1_1_1_1_40_1_1_15_1_183",
                "X_2_1_1_1_1_1_8_1_1_16_1_183",
                "X_2_1_1_1_1_1_41_1_1_17_1_183",
                "X_2_1_1_1_1_1_9_1_1_18_1_183",
                "X_2_1_1_1_1_1_42_1_1_19_1_183",
                "X_2_1_1_1_1_1_10_1_1_20_1_183",
                "X_2_1_1_1_1_1_43_1_1_21_1_183",
                "X_2_1_1_1_1_1_11_1_1_22_1_183",
                "X_2_1_1_1_1_1_44_1_1_23_1_183",
                "X_2_1_1_1_1_1_12_1_1_24_1_183",
                "X_2_1_1_1_1_1_45_1_1_25_1_183",
                "X_2_1_1_1_1_1_13_1_1_26_1_183",
                "X_2_1_1_1_1_1_46_1_1_27_1_183",
                "X_2_1_1_1_1_1_14_1_1_28_1_183",
                "X_2_1_1_1_1_1_47_1_1_29_1_183",
                "X_2_1_1_1_1_1_15_1_1_30_1_183",
                "X_2_1_1_1_1_1_48_1_1_31_1_183",
                "X_2_1_1_1_1_1_16_1_1_32_1_183",
                "X_2_1_1_1_1_1_49_1_1_33_1_183",
                "X_2_1_1_1_1_1_17_1_1_34_1_183",
                "X_2_1_1_1_1_1_50_1_1_35_1_183",
                "X_2_1_1_1_1_1_18_1_1_36_1_183",
                "X_2_1_1_1_1_1_51_1_1_37_1_183",
                "X_2_1_1_1_1_1_19_1_1_38_1_183",
                "X_2_1_1_1_1_1_52_1_1_39_1_183",
                "X_2_1_1_1_1_1_20_1_1_40_1_183",
                "X_2_1_1_1_1_1_53_1_1_41_1_183",
                "X_2_1_1_1_1_1_21_1_1_42_1_183",
                "X_2_1_1_1_1_1_54_1_1_43_1_183",
                "X_2_1_1_1_1_1_22_1_1_44_1_183",
                "X_2_1_1_1_1_1_55_1_1_45_1_183",
                "X_2_1_1_1_1_1_23_1_1_46_1_183",
                "X_2_1_1_1_1_1_56_1_1_47_1_183",
                "X_2_1_1_1_1_1_24_1_1_48_1_183",
                "X_2_1_1_1_1_1_57_1_1_49_1_183",
                "X_2_1_1_1_1_1_25_1_1_50_1_183",
                "X_2_1_1_1_1_1_58_1_1_51_1_183",
                "X_2_1_1_1_1_1_26_1_1_52_1_183",
                "X_2_1_1_1_1_1_59_1_1_53_1_183",
                "X_2_1_1_1_1_1_27_1_1_54_1_183",
                "X_2_1_1_1_1_1_60_1_1_55_1_183",
                "X_2_1_1_1_1_1_28_1_1_56_1_183",
                "X_2_1_1_1_1_1_61_1_1_57_1_183",
                "X_2_1_1_1_1_1_29_1_1_58_1_183",
                "X_2_1_1_1_1_1_62_1_1_59_1_183",
                "X_2_1_1_1_1_1_30_1_1_60_1_183",
                "X_2_1_1_1_1_1_63_1_1_61_1_183",
                "X_2_1_1_1_1_1_31_1_1_62_1_183",
                "X_2_1_1_1_1_1_64_1_1_63_1_183",
                "X_2_1_1_1_1_1_32_1_1_64_1_183"
            ],
            "CsaImage.ProtocolSliceNumber": [
                0,
                1,
                2,
                3,
                4,
                5,
                6,
                7,
                8,
                9,
                10,
                11,
                12,
                13,
                14,
                15,
                16,
                17,
                18,
                19,
                20,
                21,
                22,
                23,
                24,
                25,
                26,
                27,
                28,
                29,
                30,
                31,
                32,
                33,
                34,
                35,
                36,
                37,
                38,
                39,
                40,
                41,
                42,
                43,
                44,
                45,
                46,
                47,
                48,
                49,
                50,
                51,
                52,
                53,
                54,
                55,
                56,
                57,
                58,
                59,
                60,
                61,
                62,
                63
            ],
            "CsaImage.SliceMeasurementDuration": [
                59137.5,
                59137.5,
                59137.5,
                59137.5,
                59137.5,
                59137.5,
                59137.5,
                59137.5,
                59137.5,
                59137.5,
                59137.5,
                59137.5,
                59137.5,
                59137.5,
                59137.5,
                59137.5,
                59137.5,
                59137.5,
                59137.5,
                59135.0,
                59137.5,
                59135.0,
                59137.5,
                59135.0,
                59137.5,
                59135.0,
                59137.5,
                59135.0,
                59137.5,
                59135.0,
                59137.5,
                59135.0,
                59137.5,
                59135.0,
                59137.5,
                59135.0,
                59137.5,
                59135.0,
                59137.5,
                59135.0,
                59137.5,
                59135.0,
                59137.5,
                59135.0,
                59137.5,
                59135.0,
                59137.5,
                59135.0,
                59137.5,
                59135.0,
                59137.5,
                59135.0,
                59137.5,
                59135.0,
                59135.0,
                59135.0,
                59135.0,
                59137.5,
                59135.0,
                59137.5,
                59135.0,
                59137.5,
                59135.0,
                59137.5
            ],
            "CsaImage.SlicePosition_PCS": [
                [
                    -105.54801043,
                    -96.88780401,
                    -70.02893829
                ],
                [
                    -105.54801043,
                    -96.88780401,
                    -67.52893829
                ],
                [
                    -105.54801043,
                    -96.88780401,
                    -65.02893829
                ],
                [
                    -105.54801043,
                    -96.88780401,
                    -62.52893829
                ],
                [
                    -105.54801043,
                    -96.88780401,
                    -60.02893829
                ],
                [
                    -105.54801043,
                    -96.88780401,
                    -57.52893829
                ],
                [
                    -105.54801043,
                    -96.88780401,
                    -55.02893829
                ],
                [
                    -105.54801043,
                    -96.88780401,
                    -52.52893829
                ],
                [
                    -105.54801043,
                    -96.88780401,
                    -50.02893829
                ],
                [
                    -105.54801043,
                    -96.88780401,
                    -47.52893829
                ],
                [
                    -105.54801043,
                    -96.88780401,
                    -45.02893829
                ],
                [
                    -105.54801043,
                    -96.88780401,
                    -42.52893829
                ],
                [
                    -105.54801043,
                    -96.88780401,
                    -40.02893829
                ],
                [
                    -105.54801043,
                    -96.88780401,
                    -37.52893829
                ],
                [
                    -105.54801043,
                    -96.88780401,
                    -35.02893829
                ],
                [
                    -105.54801043,
                    -96.88780401,
                    -32.52893829
                ],
                [
                    -105.54801043,
                    -96.88780401,
                    -30.0289402
                ],
                [
                    -105.54801043,
                    -96.88780401,
                    -27.5289402
                ],
                [
                    -105.54801043,
                    -96.88780401,
                    -25.0289402
                ],
                [
                    -105.54801043,
                    -96.88780401,
                    -22.5289402
                ],
                [
                    -105.54801043,
                    -96.88780401,
                    -20.0289402
                ],
                [
                    -105.54801043,
                    -96.88780401,
                    -17.5289402
                ],
                [
                    -105.54801043,
                    -96.88780401,
                    -15.02893925
                ],
                [
                    -105.54801043,
                    -96.88780401,
                    -12.52893925
                ],
                [
                    -105.54801043,
                    -96.88780401,
                    -10.02893925
                ],
                [
                    -105.54801043,
                    -96.88780401,
                    -7.52893972
                ],
                [
                    -105.54801043,
                    -96.88780401,
                    -5.02893972
                ],
                [
                    -105.54801043,
                    -96.88780401,
                    -2.52893972
                ],
                [
                    -105.54801043,
                    -96.88780401,
                    -0.02893965
                ],
                [
                    -105.54801043,
                    -96.88780401,
                    2.47106028
                ],
                [
                    -105.54801043,
                    -96.88780401,
                    4.97106028
                ],
                [
                    -105.54801043,
                    -96.88780401,
                    7.47106028
                ],
                [
                    -105.54801043,
                    -96.88780401,
                    9.97106075
                ],
                [
                    -105.54801043,
                    -96.88780401,
                    12.47106075
                ],
                [
                    -105.54801043,
                    -96.88780401,
                    14.97106075
                ],
                [
                    -105.54801043,
                    -96.88780401,
                    17.4710598
                ],
                [
                    -105.54801043,
                    -96.88780401,
                    19.9710598
                ],
                [
                    -105.54801043,
                    -96.88780401,
                    22.4710598
                ],
                [
                    -105.54801043,
                    -96.88780401,
                    24.9710598
                ],
                [
                    -105.54801043,
                    -96.88780401,
                    27.4710598
                ],
                [
                    -105.54801043,
                    -96.88780401,
                    29.9710598
                ],
                [
                    -105.54801043,
                    -96.88780401,
                    32.47106171
                ],
                [
                    -105.54801043,
                    -96.88780401,
                    34.97106171
                ],
                [
                    -105.54801043,
                    -96.88780401,
                    37.47106171
                ],
                [
                    -105.54801043,
                    -96.88780401,
                    39.97106171
                ],
                [
                    -105.54801043,
                    -96.88780401,
                    42.47106171
                ],
                [
                    -105.54801043,
                    -96.88780401,
                    44.97106171
                ],
                [
                    -105.54801043,
                    -96.88780401,
                    47.47106171
                ],
                [
                    -105.54801043,
                    -96.88780401,
                    49.97106171
                ],
                [
                    -105.54801043,
                    -96.88780401,
                    52.47106171
                ],
                [
                    -105.54801043,
                    -96.88780401,
                    54.97106171
                ],
                [
                    -105.54801043,
                    -96.88780401,
                    57.47106171
                ],
                [
                    -105.54801043,
                    -96.88780401,
                    59.97106171
                ],
                [
                    -105.54801043,
                    -96.88780401,
                    62.47106171
                ],
                [
                    -105.54801043,
                    -96.88780401,
                    64.97106171
                ],
                [
                    -105.54801043,
                    -96.88780401,
                    67.47106171
                ],
                [
                    -105.54801043,
                    -96.88780401,
                    69.97106171
                ],
                [
                    -105.54801043,
                    -96.88780401,
                    72.47106171
                ],
                [
                    -105.54801043,
                    -96.88780401,
                    74.97106171
                ],
                [
                    -105.54801043,
                    -96.88780401,
                    77.47106171
                ],
                [
                    -105.54801043,
                    -96.88780401,
                    79.97106171
                ],
                [
                    -105.54801043,
                    -96.88780401,
                    82.47106171
                ],
                [
                    -105.54801043,
                    -96.88780401,
                    84.97106171
                ],
                [
                    -105.54801043,
                    -96.88780401,
                    87.47106171
                ]
            ],
            "CsaImage.TimeAfterStart": [
                0.7175,
                0.4775,
                0.7225,
                0.485,
                0.73,
                0.4925,
                0.7375,
                0.5,
                0.745,
                0.5075,
                0.7525,
                0.515,
                0.76,
                0.5225,
                0.7675,
                0.53,
                0.775,
                0.5375,
                0.7825,
                0.545,
                0.79,
                0.5525,
                0.7975,
                0.56,
                0.805,
                0.5675,
                0.8125,
                0.575,
                0.82,
                0.5825,
                0.8275,
                0.59,
                0.835,
                0.5975,
                0.8425,
                0.605,
                0.85,
                0.6125,
                0.8575,
                0.62,
                0.865,
                0.6275,
                0.8725,
                0.635,
                0.88,
                0.6425,
                0.8875,
                0.65,
                0.895,
                0.6575,
                0.9025,
                0.665,
                0.91,
                0.6725,
                0.9175,
                0.68,
                0.925,
                0.6875,
                0.9325,
                0.695,
                0.94,
                0.7025,
                0.9475,
                0.71
            ],
            "ImagePositionPatient": [
                [
                    -105.54801043041,
                    -96.887804009836,
                    -70.028938293457
                ],
                [
                    -105.54801043041,
                    -96.887804009836,
                    -67.528938293457
                ],
                [
                    -105.54801043041,
                    -96.887804009836,
                    -65.028938293457
                ],
                [
                    -105.54801043041,
                    -96.887804009836,
                    -62.528938293457
                ],
                [
                    -105.54801043041,
                    -96.887804009836,
                    -60.028938293457
                ],
                [
                    -105.54801043041,
                    -96.887804009836,
                    -57.528938293457
                ],
                [
                    -105.54801043041,
                    -96.887804009836,
                    -55.028938293457
                ],
                [
                    -105.54801043041,
                    -96.887804009836,
                    -52.528938293457
                ],
                [
                    -105.54801043041,
                    -96.887804009836,
                    -50.028938293457
                ],
                [
                    -105.54801043041,
                    -96.887804009836,
                    -47.528938293457
                ],
                [
                    -105.54801043041,
                    -96.887804009836,
                    -45.028938293457
                ],
                [
                    -105.54801043041,
                    -96.887804009836,
                    -42.528938293457
                ],
                [
                    -105.54801043041,
                    -96.887804009836,
                    -40.028938293457
                ],
                [
                    -105.54801043041,
                    -96.887804009836,
                    -37.528938293457
                ],
                [
                    -105.54801043041,
                    -96.887804009836,
                    -35.028938293457
                ],
                [
