{
  "AcquisitionMatrixPE": 104,
  "AcquisitionNumber": 1,
  "AcquisitionTime": "09:50:19.822500",
  "BandwidthPerPixelPhaseEncode": 43.054,
  "BaseResolution": 104,
  "CoilString": "C:E1_2",
  "ConversionSoftware": "dcm2niix",
  "ConversionSoftwareVersion": "v1.0.20191031",
  "DerivedVendorReportedEchoSpacing": 0.000669999,
  "DeviceSerialNumber": "18932",
  "DwellTime": 2.8e-06,
  "EchoTime": 0.02,
  "EffectiveEchoSpacing": 0.000223333,
  "FlipAngle": 30,
  "ImageComments": "Unaliased_MB2_PE2",
  "ImageOrientationPatientDICOM": [1, 0, 0, 0, 0.981959, -0.189095],
  "ImageType": [
    "ORIGINAL",
    "PRIMARY",
    "M",
    "MB",
    "ND",
    "MOSAIC"
],
  "ImagingFrequency": 297.229,
  "InPlanePhaseEncodingDirectionDICOM": "COL",
  "InstitutionAddress": "Richmond_Street_North_1151_London_409EF2_Ontario_CA_N6A_5B7",
  "InstitutionName": "Robarts_Reserch_Institute",
  "InstitutionalDepartmentName": "Department",
  "MRAcquisitionType": "2D",
  "MagneticFieldStrength": 6.98,
  "Manufacturer": "Siemens",
  "ManufacturersModelName": "Investigational_Device_7T",
  "Modality": "MR",
  "MultibandAccelerationFactor": 2,
  "ParallelReductionFactorInPlane": 3,
  "PartialFourier": 0.875,
  "PatientPosition": "HFS",
  "PercentPhaseFOV": 100,
  "PhaseEncodingDirection": "j-",
  "PhaseEncodingSteps": 91,
  "PhaseResolution": 1,
  "PixelBandwidth": 1717,
  "ProcedureStepDescription": "Diedrichsen_SeqRep4",
  "ProtocolName": "mbep2d_bold_mb2_p3_AP_2iso",
  "PulseSequenceDetails": "%CustomerSeq%_cmrr_mbep2d_bold",
  "ReceiveCoilName": "CFMM_8Tx32Rx",
  "ReconMatrixPE": 104,
  "RefLinesPE": 36,
  "RepetitionTime": 1,
  "ScanOptions": "PFP_FS",
  "ScanningSequence": "EP",
  "SequenceName": "epfid2d1_104",
  "SequenceVariant": "SK_SS",
  "SeriesDescription": "mbep2d_bold_mb2_p3_AP_2iso",
  "SeriesNumber": 22,
  "ShimSetting": [38, 2034, 46, 1324, 90, 41, 125, -176],
  "SliceThickness": 2,
  "SliceTiming": [0, 0.2275, 0.455, 0.6825, 0.91, 0.135, 0.365, 0.5925, 0.82, 0.045, 0.2725, 0.5, 0.7275, 0.9575, 0.1825, 0.41, 0.6375, 0.865, 0.09, 0.3175, 0.545, 0.775, 0, 0.2275, 0.455, 0.6825, 0.91, 0.135, 0.365, 0.5925, 0.82, 0.045, 0.2725, 0.5, 0.7275, 0.9575, 0.1825, 0.41, 0.6375, 0.865, 0.09, 0.3175, 0.545, 0.775],
  "SoftwareVersions": "syngo_MR_B17",
  "SpacingBetweenSlices": 2,
  "StationName": "MASTER",
  "TaskName": "dsp",
  "TotalReadoutTime": 0.0230033,
  "TxRefAmp": 120,
  "dcmmeta_affine": [
    [-2.0, 0.0, 0.0, 109.08474731445312],
    [0.0, 1.9639173746109009, -0.37819087505340576, -92.75724792480469],
    [0.0, 0.37819087505340576, 1.9639173746109009, -39.043243408203125],
    [0.0, 0.0, 0.0, 1.0]
],
  "dcmmeta_reorient_transform": [
    [0.0, -1.0, 0.0, 103.0],
    [1.0, 0.0, 0.0, 0.0],
    [0.0, 0.0, 1.0, 0.0],
    [0.0, 0.0, 0.0, 1.0]
],
  "dcmmeta_shape": [104, 104, 44, 330],
  "dcmmeta_slice_dim": 2,
  "dcmmeta_version": 0.6,
  "global": {
    "const": {
      "AcquisitionMatrix": [104, 0, 0, 104],
      "AngioFlag": "N",
      "BitsAllocated": 16,
      "BitsStored": 12,
      "Columns": 728,
      "EchoNumbers": 1,
      "EchoTime": 20.0,
      "EchoTrainLength": 1,
      "FlipAngle": 30.0,
      "HighBit": 11,
      "ImageOrientationPatient": [1.0, 0.0, 0.0, 0.0, 0.98195871320217, -0.1890954403637],
      "ImagePositionPatient": [-733.08474588394, -722.26848675595, 117.90597216194],
      "ImageType": [
        "ORIGINAL",
        "PRIMARY",
        "M",
        "MB",
        "ND",
        "MOSAIC"
],
      "ImagedNucleus": "1H",
      "ImagingFrequency": 297.228967,
      "InPlanePhaseEncodingDirection": "COL",
      "MRAcquisitionType": "2D",
      "MagneticFieldStrength": 6.98,
      "Manufacturer": "SIEMENS",
      "ManufacturerModelName": "Investigational_Device_7T",
      "Modality": "MR",
      "NumberOfAverages": 1.0,
      "NumberOfPhaseEncodingSteps": 91,
      "PercentPhaseFieldOfView": 100.0,
      "PercentSampling": 100.0,
      "PerformedProcedureStepStartTime": "091304.843000",
      "PhotometricInterpretation": "MONOCHROME2",
      "PixelBandwidth": 1717.0,
      "PixelRepresentation": 0,
      "PixelSpacing": [2.0, 2.0],
      "ProtocolName": "mbep2d_bold_mb2_p3_AP 2iso",
      "RepetitionTime": 1000.0,
      "Rows": 728,
      "SAR": 0.0,
      "SamplesPerPixel": 1,
      "ScanOptions": [
        "PFP",
        "FS"
],
      "ScanningSequence": "EP",
      "SequenceName": "epfid2d1_104",
      "SequenceVariant": [
        "SK",
        "SS"
],
      "SeriesDescription": "mbep2d_bold_mb2_p3_AP 2iso",
      "SeriesNumber": 22,
      "SeriesTime": "095052.015000",
      "SliceLocation": -20.798880860968,
      "SliceThickness": 2.0,
      "SmallestImagePixelValue": 0,
      "SoftwareVersions": "syngo MR B17",
      "SpacingBetweenSlices": 1.9999999720445,
      "SpecificCharacterSet": "ISO_IR 100",
      "StudyID": "1",
      "StudyTime": "091304.796000",
      "TransmitCoilName": "CFMM_8Tx32Rx",
      "VariableFlipAngleFlag": "N",
      "WindowCenterWidthExplanation": "Algo1",
      "dBdt": 0.0},
    "slices": {}
  },
  "time": {
    "samples": {
      "AcquisitionNumber": [1, 2, 3, 4, 5, 6, 7, 8, 9, 10, 11, 12, 13, 14, 15, 16, 17, 18, 19, 20, 21, 22, 23, 24, 25, 26, 27, 28, 29, 30, 31, 32, 33, 34, 35, 36, 37, 38, 39, 40, 41, 42, 43, 44, 45, 46, 47, 48, 49, 50, 51, 52, 53, 54, 55, 56, 57, 58, 59, 60, 61, 62, 63, 64, 65, 66, 67, 68, 69, 70, 71, 72, 73, 74, 75, 76, 77, 78, 79, 80, 81, 82, 83, 84, 85, 86, 87, 88, 89, 90, 91, 92, 93, 94, 95, 96, 97, 98, 99, 100, 101, 102, 103, 104, 105, 106, 107, 108, 109, 110, 111, 112, 113, 114, 115, 116, 117, 118, 119, 120, 121, 122, 123, 124, 125, 126, 127, 128, 129, 130, 131, 132, 133, 134, 135, 136, 137, 138, 139, 140, 141, 142, 143, 144, 145, 146, 147, 148, 149, 150, 151, 152, 153, 154, 155, 156, 157, 158, 159, 160, 161, 162, 163, 164, 165, 166, 167, 168, 169, 170, 171, 172, 173, 174, 175, 176, 177, 178, 179, 180, 181, 182, 183, 184, 185, 186, 187, 188, 189, 190, 191, 192, 193, 194, 195, 196, 197, 198, 199, 200, 201, 202, 203, 204, 205, 206, 207, 208, 209, 210, 211, 212, 213, 214, 215, 216, 217, 218, 219, 220, 221, 222, 223, 224, 225, 226, 227, 228, 229, 230, 231, 232, 233, 234, 235, 236, 237, 238, 239, 240, 241, 242, 243, 244, 245, 246, 247, 248, 249, 250, 251, 252, 253, 254, 255, 256, 257, 258, 259, 260, 261, 262, 263, 264, 265, 266, 267, 268, 269, 270, 271, 272, 273, 274, 275, 276, 277, 278, 279, 280, 281, 282, 283, 284, 285, 286, 287, 288, 289, 290, 291, 292, 293, 294, 295, 296, 297, 298, 299, 300, 301, 302, 303, 304, 305, 306, 307, 308, 309, 310, 311, 312, 313, 314, 315, 316, 317, 318, 319, 320, 321, 322, 323, 324, 325, 326, 327, 328, 329, 330],
      "AcquisitionTime": ["095019.822500", "095020.825000", "095021.830000", "095022.832500", "095023.837500", "095024.842500", "095025.845000", "095026.850000", "095027.852500", "095028.857500", "095029.862500", "095030.865000", "095031.870000", "095032.872500", "095033.877500", "095034.882500", "095035.885000", "095036.890000", "095037.892500", "095038.897500", "095039.902500", "095040.905000", "095041.910000", "095042.915000", "095043.917500", "095044.922500", "095045.925000", "095046.930000", "095047.935000", "095048.937500", "095049.942500", "095050.945000", "095051.950000", "095052.955000", "095053.957500", "095054.962500", "095055.965000", "095056.970000", "095057.975000", "095058.977500", "095059.982500", "095100.985000", "095101.990000", "095102.995000", "095103.997500", "095105.002500", "095106.005000", "095107.010000", "095108.015000", "095109.017500", "095110.022500", "095111.025000", "095112.030000", "095113.035000", "095114.037500", "095115.042500", "095116.047500", "095117.050000", "095118.055000", "095119.057500", "095120.062500", "095121.067500", "095122.070000", "095123.075000", "095124.077500", "095125.082500", "095126.087500", "095127.090000", "095128.095000", "095129.097500", "095130.102500", "095131.107500", "095132.110000", "095133.115000", "095134.117500", "095135.122500", "095136.127500", "095137.130000", "095138.135000", "095139.137500", "095140.142500", "095141.147500", "095142.150000", "095143.155000", "095144.157500", "095145.162500", "095146.167500", "095147.170000", "095148.175000", "095149.180000", "095150.182500", "095151.187500", "095152.190000", "095153.195000", "095154.200000", "095155.202500", "095156.207500", "095157.210000", "095158.215000", "095159.220000", "095200.222500", "095201.227500", "095202.230000", "095203.235000", "095204.240000", "095205.242500", "095206.247500", "095207.250000", "095208.255000", "095209.260000", "095210.262500", "095211.267500", "095212.270000", "095213.275000", "095214.280000", "095215.282500", "095216.287500", "095217.292500", "095218.295000", "095219.300000", "095220.302500", "095221.307500", "095222.312500", "095223.315000", "095224.320000", "095225.322500", "095226.327500", "095227.332500", "095228.335000", "095229.340000", "095230.342500", "095231.347500", "095232.352500", "095233.355000", "095234.360000", "095235.362500", "095236.367500", "095237.372500", "095238.375000", "095239.380000", "095240.382500", "095241.387500", "095242.392500", "095243.395000", "095244.400000", "095245.402500", "095246.407500", "095247.412500", "095248.415000", "095249.420000", "095250.425000", "095251.427500", "095252.432500", "095253.435000", "095254.440000", "095255.445000", "095256.447500", "095257.452500", "095258.455000", "095259.460000", "095300.465000", "095301.467500", "095302.472500", "095303.475000", "095304.480000", "095305.485000", "095306.487500", "095307.492500", "095308.495000", "095309.500000", "095310.505000", "095311.507500", "095312.512500", "095313.515000", "095314.520000", "095315.525000", "095316.527500", "095317.532500", "095318.535000", "095319.540000", "095320.545000", "095321.547500", "095322.552500", "095323.557500", "095324.560000", "095325.565000", "095326.567500", "095327.572500", "095328.577500", "095329.580000", "095330.585000", "095331.587500", "095332.592500", "095333.597500", "095334.600000", "095335.605000", "095336.607500", "095337.612500", "095338.617500", "095339.620000", "095340.625000", "095341.627500", "095342.632500", "095343.637500", "095344.640000", "095345.645000", "095346.647500", "095347.652500", "095348.657500", "095349.660000", "095350.665000", "095351.670000", "095352.672500", "095353.677500", "095354.680000", "095355.685000", "095356.690000", "095357.692500", "095358.697500", "095359.700000", "095400.705000", "095401.710000", "095402.712500", "095403.717500", "095404.720000", "095405.725000", "095406.730000", "095407.732500", "095408.737500", "095409.740000", "095410.745000", "095411.750000", "095412.752500", "095413.757500", "095414.760000", "095415.765000", "095416.770000", "095417.772500", "095418.777500", "095419.780000", "095420.785000", "095421.790000", "095422.792500", "095423.797500", "095424.802500", "095425.805000", "095426.810000", "095427.812500", "095428.817500", "095429.822500", "095430.825000", "095431.830000", "095432.832500", "095433.837500", "095434.842500", "095435.845000", "095436.850000", "095437.852500", "095438.857500", "095439.862500", "095440.865000", "095441.870000", "095442.872500", "095443.877500", "095444.882500", "095445.885000", "095446.890000", "095447.892500", "095448.897500", "095449.902500", "095450.905000", "095451.910000", "095452.915000", "095453.917500", "095454.922500", "095455.925000", "095456.930000", "095457.935000", "095458.937500", "095459.942500", "095500.945000", "095501.950000", "095502.955000", "095503.957500", "095504.962500", "095505.965000", "095506.970000", "095507.975000", "095508.977500", "095509.982500", "095510.985000", "095511.990000", "095512.995000", "095513.997500", "095515.002500", "095516.005000", "095517.010000", "095518.015000", "095519.017500", "095520.022500", "095521.025000", "095522.030000", "095523.035000", "095524.037500", "095525.042500", "095526.047500", "095527.050000", "095528.055000", "095529.057500", "095530.062500", "095531.067500", "095532.070000", "095533.075000", "095534.077500", "095535.082500", "095536.087500", "095537.090000", "095538.095000", "095539.097500", "095540.102500", "095541.107500", "095542.110000", "095543.115000", "095544.117500", "095545.122500", "095546.127500", "095547.130000", "095548.135000", "095549.137500", "095550.142500"],
      "ContentTime": ["095052.015000", "095052.015000", "095052.031000", "095052.031000", "095052.031000", "095052.031000", "095052.031000", "095052.031000", "095052.046000", "095052.046000", "095052.046000", "095052.046000", "095052.046000", "095052.046000", "095052.046000", "095052.046000", "095052.062000", "095052.062000", "095052.062000", "095052.062000", "095052.062000", "095052.062000", "095052.062000", "095052.078000", "095052.078000", "095052.078000", "095052.078000", "095052.078000", "095052.078000", "095052.078000", "095111.984000", "095111.984000", "095111.984000", "095111.984000", "095111.984000", "095112.000000", "095112.000000", "095112.000000", "095112.000000", "095112.000000", "095112.000000", "095112.000000", "095112.000000", "095112.015000", "095112.015000", "095112.015000", "095112.015000", "095112.015000", "095112.015000", "095112.015000", "095131.984000", "095131.984000", "095131.984000", "095131.984000", "095131.984000", "095132.000000", "095132.000000", "095132.000000", "095132.000000", "095132.000000", "095132.000000", "095132.000000", "095132.000000", "095132.015000", "095132.015000", "095132.015000", "095132.015000", "095132.015000", "095132.015000", "095132.015000", "095151.984000", "095151.984000", "095152.000000", "095152.000000", "095152.000000", "095152.000000", "095152.000000", "095152.000000", "095152.000000", "095152.015000", "095152.015000", "095152.015000", "095152.015000", "095152.015000", "095152.015000", "095152.015000", "095152.031000", "095152.031000", "095152.031000", "095152.031000", "095211.984000", "095211.984000", "095211.984000", "095211.984000", "095211.984000", "095212.000000", "095212.000000", "095212.000000", "095212.000000", "095212.000000", "095212.000000", "095212.000000", "095212.000000", "095212.015000", "095212.015000", "095212.015000", "095212.015000", "095212.015000", "095212.015000", "095212.015000", "095231.984000", "095231.984000", "095231.984000", "095232.000000", "095232.000000", "095232.000000", "095232.000000", "095232.000000", "095232.000000", "095232.000000", "095232.015000", "095232.015000", "095232.015000", "095232.015000", "095232.015000", "095232.031000", "095232.031000", "095232.031000", "095232.031000", "095232.031000", "095251.984000", "095251.984000", "095251.984000", "095251.984000", "095251.984000", "095252.000000", "095252.000000", "095252.000000", "095252.000000", "095252.000000", "095252.015000", "095252.015000", "095252.015000", "095252.015000", "095252.015000", "095252.031000", "095252.031000", "095252.031000", "095252.031000", "095252.031000", "095311.984000", "095311.984000", "095311.984000", "095311.984000", "095311.984000", "095312.000000", "095312.000000", "095312.000000", "095312.000000", "095312.000000", "095312.000000", "095312.015000", "095312.015000", "095312.015000", "095312.015000", "095312.015000", "095312.015000", "095312.015000", "095312.015000", "095312.031000", "095331.984000", "095331.984000", "095331.984000", "095331.984000", "095331.984000", "095332.000000", "095332.000000", "095332.000000", "095332.000000", "095332.000000", "095332.015000", "095332.015000", "095332.015000", "095332.015000", "095332.015000", "095332.015000", "095332.015000", "095332.031000", "095332.031000", "095332.031000", "095351.984000", "095351.984000", "095351.984000", "095351.984000", "095351.984000", "095352.000000", "095352.000000", "095352.000000", "095352.000000", "095352.000000", "095352.000000", "095352.000000", "095352.000000", "095352.015000", "095352.015000", "095352.015000", "095352.015000", "095352.015000", "095352.015000", "095352.015000", "095411.984000", "095411.984000", "095411.984000", "095411.984000", "095411.984000", "095412.000000", "095412.000000", "095412.000000", "095412.000000", "095412.000000", "095412.000000", "095412.000000", "095412.015000", "095412.015000", "095412.015000", "095412.015000", "095412.015000", "095412.015000", "095412.015000", "095412.031000", "095431.984000", "095431.984000", "095431.984000", "095431.984000", "095431.984000", "095432.000000", "095432.000000", "095432.000000", "095432.000000", "095432.000000", "095432.000000", "095432.000000", "095432.000000", "095432.015000", "095432.015000", "095432.015000", "095432.015000", "095432.031000", "095432.031000", "095432.031000", "095451.984000", "095451.984000", "095451.984000", "095451.984000", "095452.000000", "095452.000000", "095452.000000", "095452.000000", "095452.000000", "095452.000000", "095452.000000", "095452.015000", "095452.015000", "095452.015000", "095452.015000", "095452.015000", "095452.015000", "095452.015000", "095452.015000", "095452.031000", "095511.984000", "095511.984000", "095511.984000", "095511.984000", "095511.984000", "095512.000000", "095512.000000", "095512.000000", "095512.000000", "095512.000000", "095512.015000", "095512.015000", "095512.015000", "095512.015000", "095512.015000", "095512.015000", "095512.031000", "095512.031000", "095512.031000", "095512.031000", "095531.984000", "095531.984000", "095531.984000", "095532.000000", "095532.000000", "095532.000000", "095532.000000", "095532.000000", "095532.000000", "095532.015000", "095532.015000", "095532.015000", "095532.015000", "095532.015000", "095532.015000", "095532.015000", "095532.015000", "095532.031000", "095532.031000", "095532.031000", "095556.625000", "095556.625000", "095556.625000", "095556.625000", "095556.640000", "095556.640000", "095556.640000", "095556.640000", "095556.640000", "095556.640000", "095556.656000", "095556.656000", "095556.656000", "095556.656000", "095556.656000", "095556.671000", "095556.671000", "095556.671000", "095556.671000", "095556.671000"],
      "InstanceCreationTime": ["095052.015000", "095052.015000", "095052.031000", "095052.031000", "095052.031000", "095052.031000", "095052.031000", "095052.031000", "095052.046000", "095052.046000", "095052.046000", "095052.046000", "095052.046000", "095052.046000", "095052.046000", "095052.046000", "095052.062000", "095052.062000", "095052.062000", "095052.062000", "095052.062000", "095052.062000", "095052.062000", "095052.078000", "095052.078000", "095052.078000", "095052.078000", "095052.078000", "095052.078000", "095052.078000", "095111.984000", "095111.984000", "095111.984000", "095111.984000", "095111.984000", "095112.000000", "095112.000000", "095112.000000", "095112.000000", "095112.000000", "095112.000000", "095112.000000", "095112.000000", "095112.015000", "095112.015000", "095112.015000", "095112.015000", "095112.015000", "095112.015000", "095112.015000", "095131.984000", "095131.984000", "095131.984000", "095131.984000", "095131.984000", "095132.000000", "095132.000000", "095132.000000", "095132.000000", "095132.000000", "095132.000000", "095132.000000", "095132.000000", "095132.015000", "095132.015000", "095132.015000", "095132.015000", "095132.015000", "095132.015000", "095132.015000", "095151.984000", "095151.984000", "095152.000000", "095152.000000", "095152.000000", "095152.000000", "095152.000000", "095152.000000", "095152.000000", "095152.015000", "095152.015000", "095152.015000", "095152.015000", "095152.015000", "095152.015000", "095152.015000", "095152.031000", "095152.031000", "095152.031000", "095152.031000", "095211.984000", "095211.984000", "095211.984000", "095211.984000", "095211.984000", "095212.000000", "095212.000000", "095212.000000", "095212.000000", "095212.000000", "095212.000000", "095212.000000", "095212.000000", "095212.015000", "095212.015000", "095212.015000", "095212.015000", "095212.015000", "095212.015000", "095212.015000", "095231.984000", "095231.984000", "095231.984000", "095232.000000", "095232.000000", "095232.000000", "095232.000000", "095232.000000", "095232.000000", "095232.000000", "095232.015000", "095232.015000", "095232.015000", "095232.015000", "095232.015000", "095232.031000", "095232.031000", "095232.031000", "095232.031000", "095232.031000", "095251.984000", "095251.984000", "095251.984000", "095251.984000", "095251.984000", "095252.000000", "095252.000000", "095252.000000", "095252.000000", "095252.000000", "095252.015000", "095252.015000", "095252.015000", "095252.015000", "095252.015000", "095252.031000", "095252.031000", "095252.031000", "095252.031000", "095252.031000", "095311.984000", "095311.984000", "095311.984000", "095311.984000", "095311.984000", "095312.000000", "095312.000000", "095312.000000", "095312.000000", "095312.000000", "095312.000000", "095312.015000", "095312.015000", "095312.015000", "095312.015000", "095312.015000", "095312.015000", "095312.015000", "095312.015000", "095312.031000", "095331.984000", "095331.984000", "095331.984000", "095331.984000", "095331.984000", "095332.000000", "095332.000000", "095332.000000", "095332.000000", "095332.000000", "095332.015000", "095332.015000", "095332.015000", "095332.015000", "095332.015000", "095332.015000", "095332.015000", "095332.031000", "095332.031000", "095332.031000", "095351.984000", "095351.984000", "095351.984000", "095351.984000", "095351.984000", "095352.000000", "095352.000000", "095352.000000", "095352.000000", "095352.000000", "095352.000000", "095352.000000", "095352.000000", "095352.015000", "095352.015000", "095352.015000", "095352.015000", "095352.015000", "095352.015000", "095352.015000", "095411.984000", "095411.984000", "095411.984000", "095411.984000", "095411.984000", "095412.000000", "095412.000000", "095412.000000", "095412.000000", "095412.000000", "095412.000000", "095412.000000", "095412.015000", "095412.015000", "095412.015000", "095412.015000", "095412.015000", "095412.015000", "095412.015000", "095412.031000", "095431.984000", "095431.984000", "095431.984000", "095431.984000", "095431.984000", "095432.000000", "095432.000000", "095432.000000", "095432.000000", "095432.000000", "095432.000000", "095432.000000", "095432.000000", "095432.015000", "095432.015000", "095432.015000", "095432.015000", "095432.031000", "095432.031000", "095432.031000", "095451.984000", "095451.984000", "095451.984000", "095451.984000", "095452.000000", "095452.000000", "095452.000000", "095452.000000", "095452.000000", "095452.000000", "095452.000000", "095452.015000", "095452.015000", "095452.015000", "095452.015000", "095452.015000", "095452.015000", "095452.015000", "095452.015000", "095452.031000", "095511.984000", "095511.984000", "095511.984000", "095511.984000", "095511.984000", "095512.000000", "095512.000000", "095512.000000", "095512.000000", "095512.000000", "095512.015000", "095512.015000", "095512.015000", "095512.015000", "095512.015000", "095512.015000", "095512.031000", "095512.031000", "095512.031000", "095512.031000", "095531.984000", "095531.984000", "095531.984000", "095532.000000", "095532.000000", "095532.000000", "095532.000000", "095532.000000", "095532.000000", "095532.015000", "095532.015000", "095532.015000", "095532.015000", "095532.015000", "095532.015000", "095532.015000", "095532.015000", "095532.031000", "095532.031000", "095532.031000", "095556.625000", "095556.625000", "095556.625000", "095556.625000", "095556.640000", "095556.640000", "095556.640000", "095556.640000", "095556.640000", "095556.640000", "095556.656000", "095556.656000", "095556.656000", "095556.656000", "095556.656000", "095556.671000", "095556.671000", "095556.671000", "095556.671000", "095556.671000"],
      "InstanceNumber": [1, 2, 3, 4, 5, 6, 7, 8, 9, 10, 11, 12, 13, 14, 15, 16, 17, 18, 19, 20, 21, 22, 23, 24, 25, 26, 27, 28, 29, 30, 31, 32, 33, 34, 35, 36, 37, 38, 39, 40, 41, 42, 43, 44, 45, 46, 47, 48, 49, 50, 51, 52, 53, 54, 55, 56, 57, 58, 59, 60, 61, 62, 63, 64, 65, 66, 67, 68, 69, 70, 71, 72, 73, 74, 75, 76, 77, 78, 79, 80, 81, 82, 83, 84, 85, 86, 87, 88, 89, 90, 91, 92, 93, 94, 95, 96, 97, 98, 99, 100, 101, 102, 103, 104, 105, 106, 107, 108, 109, 110, 111, 112, 113, 114, 115, 116, 117, 118, 119, 120, 121, 122, 123, 124, 125, 126, 127, 128, 129, 130, 131, 132, 133, 134, 135, 136, 137, 138, 139, 140, 141, 142, 143, 144, 145, 146, 147, 148, 149, 150, 151, 152, 153, 154, 155, 156, 157, 158, 159, 160, 161, 162, 163, 164, 165, 166, 167, 168, 169, 170, 171, 172, 173, 174, 175, 176, 177, 178, 179, 180, 181, 182, 183, 184, 185, 186, 187, 188, 189, 190, 191, 192, 193, 194, 195, 196, 197, 198, 199, 200, 201, 202, 203, 204, 205, 206, 207, 208, 209, 210, 211, 212, 213, 214, 215, 216, 217, 218, 219, 220, 221, 222, 223, 224, 225, 226, 227, 228, 229, 230, 231, 232, 233, 234, 235, 236, 237, 238, 239, 240, 241, 242, 243, 244, 245, 246, 247, 248, 249, 250, 251, 252, 253, 254, 255, 256, 257, 258, 259, 260, 261, 262, 263, 264, 265, 266, 267, 268, 269, 270, 271, 272, 273, 274, 275, 276, 277, 278, 279, 280, 281, 282, 283, 284, 285, 286, 287, 288, 289, 290, 291, 292, 293, 294, 295, 296, 297, 298, 299, 300, 301, 302, 303, 304, 305, 306, 307, 308, 309, 310, 311, 312, 313, 314, 315, 316, 317, 318, 319, 320, 321, 322, 323, 324, 325, 326, 327, 328, 329, 330],
      "LargestImagePixelValue": [2014, 2007, 1974, 1946, 1955, 2007, 1989, 1997, 1981, 1981, 1990, 1965, 2110, 2111, 2116, 2148, 2146, 2090, 2144, 2135, 2162, 2143, 2175, 2177, 2186, 2177, 2158, 2207, 2186, 2211, 2184, 2197, 2177, 2211, 2175, 2207, 2176, 2191, 2186, 2193, 2179, 2205, 2199, 2186, 2179, 2180, 2227, 2168, 2161, 2165, 2191, 2172, 2222, 2152, 2171, 2165, 2189, 2137, 2188, 2139, 2185, 2157, 2194, 2166, 2211, 2182, 2198, 2222, 2186, 2173, 2142, 2155, 2184, 2163, 2205, 2199, 2170, 2054, 2067, 2035, 2055, 2061, 2063, 2032, 2067, 2041, 2063, 2070, 2060, 2100, 2096, 2076, 2071, 2096, 2075, 2043, 2078, 2038, 2051, 2050, 2058, 2101, 2087, 2039, 2041, 2096, 2079, 2059, 2052, 2090, 2086, 2083, 2086, 2065, 2075, 2083, 2048, 2076, 2047, 2108, 2092, 2065, 2047, 2086, 2093, 2076, 2071, 2077, 2062, 2060, 2110, 2081, 2045, 2050, 2064, 2074, 2075, 2092, 2074, 2059, 2071, 2034, 2098, 2066, 2082, 2076, 2100, 2098, 2113, 2085, 2100, 2119, 2013, 2063, 2084, 2096, 2076, 2092, 2081, 2088, 2121, 2123, 2106, 2127, 2101, 2072, 2110, 2090, 2133, 2103, 2120, 2098, 2160, 2102, 2103, 2173, 2100, 2112, 2114, 2098, 2131, 2076, 2077, 2087, 2066, 2116, 2037, 2185, 2164, 2092, 2126, 2129, 2120, 2037, 2091, 2029, 1987, 2027, 2041, 2030, 2031, 2010, 2010, 2049, 2036, 2058, 2065, 2033, 2114, 2068, 2053, 2126, 2075, 2092, 2127, 2066, 2106, 2057, 2055, 2056, 2084, 2078, 2069, 2083, 2088, 2078, 2094, 2084, 2071, 2101, 2089, 2062, 2078, 2058, 2102, 2092, 2097, 2088, 2074, 2077, 2077, 2047, 2090, 2075, 2131, 2060, 2070, 2055, 2090, 2067, 2115, 2104, 2103, 2062, 2119, 2128, 2109, 2150, 2093, 2071, 2021, 2059, 2014, 2024, 2080, 2093, 2081, 2098, 2102, 2101, 2077, 2116, 2069, 2115, 2093, 2088, 2090, 2115, 2124, 2116, 2098, 2122, 2135, 2151, 2162, 2122, 2120, 2083, 2142, 2096, 2068, 2100, 2123, 2099, 2088, 2109, 2077, 2120, 2105, 2197, 2145, 2085, 2089, 2087, 2052, 2155, 2103, 2109, 2084, 2116, 2086, 2053, 2107, 2082, 2074, 2100, 2129, 2118, 2083, 2132, 2104, 2114, 2102, 2129, 2108, 2106, 2110, 2093, 2104, 2107],
      "WindowCenter": [396.0, 394.0, 393.0, 393.0, 394.0, 395.0, 394.0, 393.0, 392.0, 393.0, 393.0, 394.0, 400.0, 401.0, 401.0, 401.0, 400.0, 398.0, 397.0, 397.0, 397.0, 397.0, 397.0, 396.0, 395.0, 394.0, 394.0, 396.0, 397.0, 399.0, 401.0, 400.0, 399.0, 399.0, 398.0, 398.0, 399.0, 400.0, 400.0, 400.0, 400.0, 400.0, 400.0, 399.0, 400.0, 399.0, 398.0, 397.0, 397.0, 396.0, 397.0, 397.0, 398.0, 398.0, 397.0, 396.0, 397.0, 397.0, 398.0, 400.0, 401.0, 401.0, 400.0, 399.0, 398.0, 397.0, 397.0, 397.0, 396.0, 396.0, 397.0, 397.0, 398.0, 398.0, 397.0, 397.0, 396.0, 396.0, 395.0, 395.0, 395.0, 394.0, 395.0, 395.0, 395.0, 394.0, 394.0, 394.0, 393.0, 392.0, 393.0, 394.0, 395.0, 396.0, 396.0, 397.0, 396.0, 395.0, 395.0, 394.0, 395.0, 396.0, 396.0, 397.0, 397.0, 397.0, 396.0, 396.0, 397.0, 396.0, 398.0, 399.0, 399.0, 398.0, 399.0, 399.0, 397.0, 396.0, 395.0, 394.0, 394.0, 395.0, 396.0, 397.0, 397.0, 397.0, 396.0, 396.0, 396.0, 397.0, 398.0, 400.0, 400.0, 399.0, 399.0, 397.0, 397.0, 396.0, 397.0, 398.0, 397.0, 394.0, 395.0, 394.0, 394.0, 394.0, 395.0, 396.0, 396.0, 397.0, 397.0, 397.0, 395.0, 396.0, 397.0, 396.0, 396.0, 396.0, 397.0, 397.0, 398.0, 399.0, 398.0, 397.0, 397.0, 397.0, 397.0, 396.0, 397.0, 397.0, 396.0, 397.0, 397.0, 396.0, 397.0, 398.0, 398.0, 397.0, 396.0, 395.0, 395.0, 395.0, 396.0, 397.0, 398.0, 397.0, 399.0, 399.0, 398.0, 398.0, 398.0, 397.0, 397.0, 396.0, 396.0, 394.0, 394.0, 396.0, 396.0, 396.0, 397.0, 396.0, 395.0, 394.0, 394.0, 394.0, 394.0, 394.0, 396.0, 395.0, 394.0, 395.0, 394.0, 395.0, 394.0, 394.0, 392.0, 392.0, 393.0, 393.0, 393.0, 391.0, 391.0, 392.0, 393.0, 395.0, 397.0, 396.0, 397.0, 397.0, 396.0, 396.0, 396.0, 397.0, 398.0, 399.0, 399.0, 399.0, 398.0, 397.0, 397.0, 398.0, 399.0, 398.0, 398.0, 397.0, 396.0, 396.0, 396.0, 395.0, 396.0, 396.0, 397.0, 396.0, 398.0, 398.0, 398.0, 398.0, 397.0, 396.0, 398.0, 400.0, 399.0, 399.0, 400.0, 400.0, 397.0, 396.0, 395.0, 395.0, 396.0, 398.0, 398.0, 398.0, 397.0, 396.0, 395.0, 395.0, 395.0, 394.0, 394.0, 395.0, 394.0, 394.0, 395.0, 396.0, 398.0, 398.0, 399.0, 398.0, 397.0, 397.0, 399.0, 399.0, 399.0, 400.0, 400.0, 400.0, 400.0, 400.0, 398.0, 396.0, 394.0, 393.0, 394.0, 395.0, 394.0, 393.0, 392.0, 391.0, 391.0, 391.0, 392.0, 393.0, 394.0, 394.0, 396.0, 397.0, 397.0, 397.0, 397.0, 397.0, 398.0, 398.0, 398.0, 398.0, 398.0, 397.0, 396.0, 396.0],
