{
  "AcquisitionMatrixPE": 104,
  "AcquisitionNumber": 1,
  "AcquisitionTime": "09:43:36.560000",
  "BandwidthPerPixelPhaseEncode": 43.054,
  "BaseResolution": 104,
  "CoilString": "C:E1_2",
  "ConversionSoftware": "dcm2niix",
  "ConversionSoftwareVersion": "v1.0.20191031",
  "DerivedVendorReportedEchoSpacing": 0.000669999,
  "DeviceSerialNumber": "18932",
  "DwellTime": 2.8e-06,
  "EchoTime": 0.02,
  "EffectiveEchoSpacing": 0.000223333,
  "FlipAngle": 30,
  "ImageComments": "Unaliased_MB2_PE2",
  "ImageOrientationPatientDICOM": [1, 0, 0, 0, 0.981959, -0.189095],
  "ImageType": [
    "ORIGINAL",
    "PRIMARY",
    "M",
    "MB",
    "ND",
    "MOSAIC"
],
  "ImagingFrequency": 297.229,
  "InPlanePhaseEncodingDirectionDICOM": "COL",
  "InstitutionAddress": "Richmond_Street_North_1151_London_409EF2_Ontario_CA_N6A_5B7",
  "InstitutionName": "Robarts_Reserch_Institute",
  "InstitutionalDepartmentName": "Department",
  "MRAcquisitionType": "2D",
  "MagneticFieldStrength": 6.98,
  "Manufacturer": "Siemens",
  "ManufacturersModelName": "Investigational_Device_7T",
  "Modality": "MR",
  "MultibandAccelerationFactor": 2,
  "ParallelReductionFactorInPlane": 3,
  "PartialFourier": 0.875,
  "PatientPosition": "HFS",
  "PercentPhaseFOV": 100,
  "PhaseEncodingDirection": "j-",
  "PhaseEncodingSteps": 91,
  "PhaseResolution": 1,
  "PixelBandwidth": 1717,
  "ProcedureStepDescription": "Diedrichsen_SeqRep4",
  "ProtocolName": "mbep2d_bold_mb2_p3_AP_2iso",
  "PulseSequenceDetails": "%CustomerSeq%_cmrr_mbep2d_bold",
  "ReceiveCoilName": "CFMM_8Tx32Rx",
  "ReconMatrixPE": 104,
  "RefLinesPE": 36,
  "RepetitionTime": 1,
  "ScanOptions": "PFP_FS",
  "ScanningSequence": "EP",
  "SequenceName": "epfid2d1_104",
  "SequenceVariant": "SK_SS",
  "SeriesDescription": "mbep2d_bold_mb2_p3_AP_2iso",
  "SeriesNumber": 20,
  "ShimSetting": [38, 2034, 46, 1324, 90, 41, 125, -176],
  "SliceThickness": 2,
  "SliceTiming": [0, 0.2275, 0.4575, 0.685, 0.9125, 0.1375, 0.365, 0.5925, 0.8225, 0.045, 0.275, 0.5025, 0.73, 0.9575, 0.1825, 0.41, 0.64, 0.8675, 0.0925, 0.32, 0.5475, 0.775, 0, 0.2275, 0.4575, 0.685, 0.9125, 0.1375, 0.365, 0.5925, 0.8225, 0.045, 0.275, 0.5025, 0.73, 0.9575, 0.1825, 0.41, 0.64, 0.8675, 0.0925, 0.32, 0.5475, 0.775],
  "SoftwareVersions": "syngo_MR_B17",
  "SpacingBetweenSlices": 2,
  "StationName": "MASTER",
  "TaskName": "dsp",
  "TotalReadoutTime": 0.0230033,
  "TxRefAmp": 120,
  "dcmmeta_affine": [
    [-2.0, 0.0, 0.0, 109.08474731445312],
    [0.0, 1.9639173746109009, -0.37819087505340576, -92.75724792480469],
    [0.0, 0.37819087505340576, 1.9639173746109009, -39.043243408203125],
    [0.0, 0.0, 0.0, 1.0]
],
  "dcmmeta_reorient_transform": [
    [0.0, -1.0, 0.0, 103.0],
    [1.0, 0.0, 0.0, 0.0],
    [0.0, 0.0, 1.0, 0.0],
    [0.0, 0.0, 0.0, 1.0]
],
  "dcmmeta_shape": [104, 104, 44, 330],
  "dcmmeta_slice_dim": 2,
  "dcmmeta_version": 0.6,
  "global": {
    "const": {
      "AcquisitionMatrix": [104, 0, 0, 104],
      "AngioFlag": "N",
      "BitsAllocated": 16,
      "BitsStored": 12,
      "Columns": 728,
      "EchoNumbers": 1,
      "EchoTime": 20.0,
      "EchoTrainLength": 1,
      "FlipAngle": 30.0,
      "HighBit": 11,
      "ImageOrientationPatient": [1.0, 0.0, 0.0, 0.0, 0.98195871320217, -0.1890954403637],
      "ImagePositionPatient": [-733.08474588394, -722.26848675595, 117.90597216194],
      "ImageType": [
        "ORIGINAL",
        "PRIMARY",
        "M",
        "MB",
        "ND",
        "MOSAIC"
],
      "ImagedNucleus": "1H",
      "ImagingFrequency": 297.228949,
      "InPlanePhaseEncodingDirection": "COL",
      "MRAcquisitionType": "2D",
      "MagneticFieldStrength": 6.98,
      "Manufacturer": "SIEMENS",
      "ManufacturerModelName": "Investigational_Device_7T",
      "Modality": "MR",
      "NumberOfAverages": 1.0,
      "NumberOfPhaseEncodingSteps": 91,
      "PercentPhaseFieldOfView": 100.0,
      "PercentSampling": 100.0,
      "PerformedProcedureStepStartTime": "091304.843000",
      "PhotometricInterpretation": "MONOCHROME2",
      "PixelBandwidth": 1717.0,
      "PixelRepresentation": 0,
      "PixelSpacing": [2.0, 2.0],
      "ProtocolName": "mbep2d_bold_mb2_p3_AP 2iso",
      "RepetitionTime": 1000.0,
      "Rows": 728,
      "SAR": 0.0,
      "SamplesPerPixel": 1,
      "ScanOptions": [
        "PFP",
        "FS"
],
      "ScanningSequence": "EP",
      "SequenceName": "epfid2d1_104",
      "SequenceVariant": [
        "SK",
        "SS"
],
      "SeriesDescription": "mbep2d_bold_mb2_p3_AP 2iso",
      "SeriesNumber": 20,
      "SeriesTime": "094416.015000",
      "SliceLocation": -20.798880860968,
      "SliceThickness": 2.0,
      "SmallestImagePixelValue": 0,
      "SoftwareVersions": "syngo MR B17",
      "SpacingBetweenSlices": 1.9999999720445,
      "SpecificCharacterSet": "ISO_IR 100",
      "StudyID": "1",
      "StudyTime": "091304.796000",
      "TransmitCoilName": "CFMM_8Tx32Rx",
      "VariableFlipAngleFlag": "N",
      "WindowCenterWidthExplanation": "Algo1",
      "dBdt": 0.0},
    "slices": {}
  },
  "time": {
    "samples": {
      "AcquisitionNumber": [1, 2, 3, 4, 5, 6, 7, 8, 9, 10, 11, 12, 13, 14, 15, 16, 17, 18, 19, 20, 21, 22, 23, 24, 25, 26, 27, 28, 29, 30, 31, 32, 33, 34, 35, 36, 37, 38, 39, 40, 41, 42, 43, 44, 45, 46, 47, 48, 49, 50, 51, 52, 53, 54, 55, 56, 57, 58, 59, 60, 61, 62, 63, 64, 65, 66, 67, 68, 69, 70, 71, 72, 73, 74, 75, 76, 77, 78, 79, 80, 81, 82, 83, 84, 85, 86, 87, 88, 89, 90, 91, 92, 93, 94, 95, 96, 97, 98, 99, 100, 101, 102, 103, 104, 105, 106, 107, 108, 109, 110, 111, 112, 113, 114, 115, 116, 117, 118, 119, 120, 121, 122, 123, 124, 125, 126, 127, 128, 129, 130, 131, 132, 133, 134, 135, 136, 137, 138, 139, 140, 141, 142, 143, 144, 145, 146, 147, 148, 149, 150, 151, 152, 153, 154, 155, 156, 157, 158, 159, 160, 161, 162, 163, 164, 165, 166, 167, 168, 169, 170, 171, 172, 173, 174, 175, 176, 177, 178, 179, 180, 181, 182, 183, 184, 185, 186, 187, 188, 189, 190, 191, 192, 193, 194, 195, 196, 197, 198, 199, 200, 201, 202, 203, 204, 205, 206, 207, 208, 209, 210, 211, 212, 213, 214, 215, 216, 217, 218, 219, 220, 221, 222, 223, 224, 225, 226, 227, 228, 229, 230, 231, 232, 233, 234, 235, 236, 237, 238, 239, 240, 241, 242, 243, 244, 245, 246, 247, 248, 249, 250, 251, 252, 253, 254, 255, 256, 257, 258, 259, 260, 261, 262, 263, 264, 265, 266, 267, 268, 269, 270, 271, 272, 273, 274, 275, 276, 277, 278, 279, 280, 281, 282, 283, 284, 285, 286, 287, 288, 289, 290, 291, 292, 293, 294, 295, 296, 297, 298, 299, 300, 301, 302, 303, 304, 305, 306, 307, 308, 309, 310, 311, 312, 313, 314, 315, 316, 317, 318, 319, 320, 321, 322, 323, 324, 325, 326, 327, 328, 329, 330],
      "AcquisitionTime": ["094336.560000", "094337.565000", "094338.567500", "094339.572500", "094340.577500", "094341.580000", "094342.585000", "094343.587500", "094344.592500", "094345.597500", "094346.600000", "094347.605000", "094348.607500", "094349.612500", "094350.617500", "094351.620000", "094352.625000", "094353.630000", "094354.632500", "094355.637500", "094356.640000", "094357.645000", "094358.650000", "094359.652500", "094400.657500", "094401.660000", "094402.665000", "094403.670000", "094404.672500", "094405.677500", "094406.680000", "094407.685000", "094408.690000", "094409.692500", "094410.697500", "094411.700000", "094412.705000", "094413.710000", "094414.712500", "094415.717500", "094416.720000", "094417.725000", "094418.730000", "094419.732500", "094420.737500", "094421.740000", "094422.745000", "094423.750000", "094424.752500", "094425.757500", "094426.762500", "094427.765000", "094428.770000", "094429.772500", "094430.777500", "094431.782500", "094432.785000", "094433.790000", "094434.792500", "094435.797500", "094436.802500", "094437.805000", "094438.810000", "094439.812500", "094440.817500", "094441.822500", "094442.825000", "094443.830000", "094444.832500", "094445.837500", "094446.842500", "094447.845000", "094448.850000", "094449.852500", "094450.857500", "094451.862500", "094452.865000", "094453.870000", "094454.872500", "094455.877500", "094456.882500", "094457.885000", "094458.890000", "094459.895000", "094500.897500", "094501.902500", "094502.905000", "094503.910000", "094504.915000", "094505.917500", "094506.922500", "094507.925000", "094508.930000", "094509.935000", "094510.937500", "094511.942500", "094512.945000", "094513.950000", "094514.955000", "094515.957500", "094516.962500", "094517.965000", "094518.970000", "094519.975000", "094520.977500", "094521.982500", "094522.985000", "094523.990000", "094524.995000", "094525.997500", "094527.002500", "094528.007500", "094529.010000", "094530.015000", "094531.017500", "094532.022500", "094533.027500", "094534.030000", "094535.035000", "094536.037500", "094537.042500", "094538.047500", "094539.050000", "094540.055000", "094541.057500", "094542.062500", "094543.067500", "094544.070000", "094545.075000", "094546.077500", "094547.082500", "094548.087500", "094549.090000", "094550.095000", "094551.097500", "094552.102500", "094553.107500", "094554.110000", "094555.115000", "094556.117500", "094557.122500", "094558.127500", "094559.130000", "094600.135000", "094601.140000", "094602.142500", "094603.147500", "094604.150000", "094605.155000", "094606.160000", "094607.162500", "094608.167500", "094609.170000", "094610.175000", "094611.180000", "094612.182500", "094613.187500", "094614.190000", "094615.195000", "094616.200000", "094617.202500", "094618.207500", "094619.210000", "094620.215000", "094621.220000", "094622.222500", "094623.227500", "094624.230000", "094625.235000", "094626.240000", "094627.242500", "094628.247500", "094629.250000", "094630.255000", "094631.260000", "094632.262500", "094633.267500", "094634.272500", "094635.275000", "094636.280000", "094637.282500", "094638.287500", "094639.292500", "094640.295000", "094641.300000", "094642.302500", "094643.307500", "094644.312500", "094645.315000", "094646.320000", "094647.322500", "094648.327500", "094649.332500", "094650.335000", "094651.340000", "094652.342500", "094653.347500", "094654.352500", "094655.355000", "094656.360000", "094657.362500", "094658.367500", "094659.372500", "094700.375000", "094701.380000", "094702.385000", "094703.387500", "094704.392500", "094705.395000", "094706.400000", "094707.405000", "094708.407500", "094709.412500", "094710.415000", "094711.420000", "094712.425000", "094713.427500", "094714.432500", "094715.435000", "094716.440000", "094717.445000", "094718.447500", "094719.452500", "094720.455000", "094721.460000", "094722.465000", "094723.467500", "094724.472500", "094725.475000", "094726.480000", "094727.485000", "094728.487500", "094729.492500", "094730.495000", "094731.500000", "094732.505000", "094733.507500", "094734.512500", "094735.517500", "094736.520000", "094737.525000", "094738.527500", "094739.532500", "094740.537500", "094741.540000", "094742.545000", "094743.547500", "094744.552500", "094745.557500", "094746.560000", "094747.565000", "094748.567500", "094749.572500", "094750.577500", "094751.580000", "094752.585000", "094753.587500", "094754.592500", "094755.597500", "094756.600000", "094757.605000", "094758.607500", "094759.612500", "094800.617500", "094801.620000", "094802.625000", "094803.630000", "094804.632500", "094805.637500", "094806.640000", "094807.645000", "094808.650000", "094809.652500", "094810.657500", "094811.660000", "094812.665000", "094813.670000", "094814.672500", "094815.677500", "094816.680000", "094817.685000", "094818.690000", "094819.692500", "094820.697500", "094821.700000", "094822.705000", "094823.710000", "094824.712500", "094825.717500", "094826.720000", "094827.725000", "094828.730000", "094829.732500", "094830.737500", "094831.740000", "094832.745000", "094833.750000", "094834.752500", "094835.757500", "094836.762500", "094837.765000", "094838.770000", "094839.772500", "094840.777500", "094841.782500", "094842.785000", "094843.790000", "094844.792500", "094845.797500", "094846.802500", "094847.805000", "094848.810000", "094849.812500", "094850.817500", "094851.822500", "094852.825000", "094853.830000", "094854.832500", "094855.837500", "094856.842500", "094857.845000", "094858.850000", "094859.852500", "094900.857500", "094901.862500", "094902.865000", "094903.870000", "094904.872500", "094905.877500", "094906.882500"],
      "ContentTime": ["094416.015000", "094416.015000", "094416.015000", "094416.015000", "094416.031000", "094416.031000", "094416.031000", "094416.031000", "094416.031000", "094416.031000", "094416.031000", "094416.046000", "094416.046000", "094416.046000", "094416.046000", "094416.046000", "094416.046000", "094416.046000", "094416.062000", "094416.062000", "094416.062000", "094416.062000", "094416.062000", "094416.062000", "094416.078000", "094416.078000", "094416.078000", "094416.093000", "094416.109000", "094416.109000", "094416.109000", "094416.109000", "094416.109000", "094416.109000", "094416.125000", "094416.125000", "094416.125000", "094435.984000", "094435.984000", "094435.984000", "094435.984000", "094435.984000", "094436.000000", "094436.000000", "094436.000000", "094436.000000", "094436.000000", "094436.000000", "094436.000000", "094436.000000", "094436.015000", "094436.015000", "094436.015000", "094436.015000", "094436.015000", "094436.015000", "094436.015000", "094455.984000", "094455.984000", "094455.984000", "094455.984000", "094456.000000", "094456.000000", "094456.000000", "094456.000000", "094456.000000", "094456.000000", "094456.000000", "094456.015000", "094456.015000", "094456.015000", "094456.015000", "094456.015000", "094456.015000", "094456.031000", "094456.031000", "094456.031000", "094515.984000", "094515.984000", "094515.984000", "094515.984000", "094515.984000", "094516.000000", "094516.000000", "094516.000000", "094516.000000", "094516.015000", "094516.015000", "094516.015000", "094516.015000", "094516.015000", "094516.015000", "094516.015000", "094516.031000", "094516.031000", "094516.031000", "094516.031000", "094535.984000", "094535.984000", "094535.984000", "094535.984000", "094535.984000", "094536.000000", "094536.000000", "094536.000000", "094536.000000", "094536.000000", "094536.000000", "094536.000000", "094536.000000", "094536.015000", "094536.015000", "094536.015000", "094536.015000", "094536.015000", "094536.015000", "094536.015000", "094555.984000", "094555.984000", "094555.984000", "094555.984000", "094556.000000", "094556.000000", "094556.000000", "094556.000000", "094556.000000", "094556.015000", "094556.015000", "094556.031000", "094556.031000", "094556.031000", "094556.031000", "094556.031000", "094556.031000", "094556.031000", "094556.046000", "094556.046000", "094615.984000", "094615.984000", "094615.984000", "094615.984000", "094615.984000", "094616.000000", "094616.000000", "094616.000000", "094616.000000", "094616.000000", "094616.000000", "094616.000000", "094616.015000", "094616.015000", "094616.015000", "094616.015000", "094616.015000", "094616.015000", "094616.015000", "094616.031000", "094635.984000", "094635.984000", "094635.984000", "094635.984000", "094635.984000", "094636.000000", "094636.000000", "094636.000000", "094636.000000", "094636.000000", "094636.000000", "094636.000000", "094636.015000", "094636.015000", "094636.015000", "094636.015000", "094636.015000", "094636.015000", "094636.015000", "094636.015000", "094655.984000", "094655.984000", "094655.984000", "094656.000000", "094656.000000", "094656.000000", "094656.015000", "094656.015000", "094656.015000", "094656.015000", "094656.015000", "094656.015000", "094656.015000", "094656.031000", "094656.031000", "094656.031000", "094656.031000", "094656.031000", "094656.031000", "094656.046000", "094715.984000", "094715.984000", "094715.984000", "094715.984000", "094715.984000", "094716.000000", "094716.000000", "094716.000000", "094716.000000", "094716.000000", "094716.000000", "094716.000000", "094716.000000", "094716.015000", "094716.015000", "094716.015000", "094716.015000", "094716.015000", "094716.015000", "094716.015000", "094735.984000", "094735.984000", "094735.984000", "094735.984000", "094735.984000", "094736.000000", "094736.000000", "094736.000000", "094736.000000", "094736.000000", "094736.000000", "094736.015000", "094736.015000", "094736.015000", "094736.015000", "094736.015000", "094736.031000", "094736.031000", "094736.031000", "094736.031000", "094755.984000", "094755.984000", "094755.984000", "094755.984000", "094755.984000", "094756.000000", "094756.000000", "094756.000000", "094756.000000", "094756.000000", "094756.000000", "094756.015000", "094756.015000", "094756.015000", "094756.015000", "094756.015000", "094756.015000", "094756.015000", "094756.031000", "094756.031000", "094815.984000", "094815.984000", "094815.984000", "094815.984000", "094815.984000", "094816.000000", "094816.000000", "094816.000000", "094816.000000", "094816.000000", "094816.000000", "094816.000000", "094816.000000", "094816.015000", "094816.015000", "094816.015000", "094816.015000", "094816.015000", "094816.015000", "094816.015000", "094835.984000", "094835.984000", "094835.984000", "094836.000000", "094836.000000", "094836.000000", "094836.000000", "094836.000000", "094836.000000", "094836.000000", "094836.000000", "094836.015000", "094836.015000", "094836.015000", "094836.015000", "094836.015000", "094836.015000", "094836.031000", "094836.031000", "094836.031000", "094855.984000", "094855.984000", "094855.984000", "094855.984000", "094855.984000", "094856.000000", "094856.000000", "094856.000000", "094856.000000", "094856.000000", "094856.000000", "094856.015000", "094856.015000", "094856.015000", "094856.015000", "094856.015000", "094856.015000", "094856.031000", "094856.031000", "094856.031000", "094913.125000", "094913.125000", "094913.125000", "094913.125000", "094913.125000", "094913.125000", "094913.140000", "094913.140000", "094913.140000", "094913.140000", "094913.140000", "094913.156000", "094913.156000"],
      "InstanceCreationTime": ["094416.015000", "094416.015000", "094416.015000", "094416.015000", "094416.031000", "094416.031000", "094416.031000", "094416.031000", "094416.031000", "094416.031000", "094416.031000", "094416.046000", "094416.046000", "094416.046000", "094416.046000", "094416.046000", "094416.046000", "094416.046000", "094416.062000", "094416.062000", "094416.062000", "094416.062000", "094416.062000", "094416.062000", "094416.078000", "094416.078000", "094416.078000", "094416.093000", "094416.109000", "094416.109000", "094416.109000", "094416.109000", "094416.109000", "094416.109000", "094416.125000", "094416.125000", "094416.125000", "094435.984000", "094435.984000", "094435.984000", "094435.984000", "094435.984000", "094436.000000", "094436.000000", "094436.000000", "094436.000000", "094436.000000", "094436.000000", "094436.000000", "094436.000000", "094436.015000", "094436.015000", "094436.015000", "094436.015000", "094436.015000", "094436.015000", "094436.015000", "094455.984000", "094455.984000", "094455.984000", "094455.984000", "094456.000000", "094456.000000", "094456.000000", "094456.000000", "094456.000000", "094456.000000", "094456.000000", "094456.015000", "094456.015000", "094456.015000", "094456.015000", "094456.015000", "094456.015000", "094456.031000", "094456.031000", "094456.031000", "094515.984000", "094515.984000", "094515.984000", "094515.984000", "094515.984000", "094516.000000", "094516.000000", "094516.000000", "094516.000000", "094516.015000", "094516.015000", "094516.015000", "094516.015000", "094516.015000", "094516.015000", "094516.015000", "094516.031000", "094516.031000", "094516.031000", "094516.031000", "094535.984000", "094535.984000", "094535.984000", "094535.984000", "094535.984000", "094536.000000", "094536.000000", "094536.000000", "094536.000000", "094536.000000", "094536.000000", "094536.000000", "094536.000000", "094536.015000", "094536.015000", "094536.015000", "094536.015000", "094536.015000", "094536.015000", "094536.015000", "094555.984000", "094555.984000", "094555.984000", "094555.984000", "094556.000000", "094556.000000", "094556.000000", "094556.000000", "094556.000000", "094556.015000", "094556.015000", "094556.031000", "094556.031000", "094556.031000", "094556.031000", "094556.031000", "094556.031000", "094556.031000", "094556.046000", "094556.046000", "094615.984000", "094615.984000", "094615.984000", "094615.984000", "094615.984000", "094616.000000", "094616.000000", "094616.000000", "094616.000000", "094616.000000", "094616.000000", "094616.000000", "094616.015000", "094616.015000", "094616.015000", "094616.015000", "094616.015000", "094616.015000", "094616.015000", "094616.031000", "094635.984000", "094635.984000", "094635.984000", "094635.984000", "094635.984000", "094636.000000", "094636.000000", "094636.000000", "094636.000000", "094636.000000", "094636.000000", "094636.000000", "094636.015000", "094636.015000", "094636.015000", "094636.015000", "094636.015000", "094636.015000", "094636.015000", "094636.015000", "094655.984000", "094655.984000", "094655.984000", "094656.000000", "094656.000000", "094656.000000", "094656.015000", "094656.015000", "094656.015000", "094656.015000", "094656.015000", "094656.015000", "094656.015000", "094656.031000", "094656.031000", "094656.031000", "094656.031000", "094656.031000", "094656.031000", "094656.046000", "094715.984000", "094715.984000", "094715.984000", "094715.984000", "094715.984000", "094716.000000", "094716.000000", "094716.000000", "094716.000000", "094716.000000", "094716.000000", "094716.000000", "094716.000000", "094716.015000", "094716.015000", "094716.015000", "094716.015000", "094716.015000", "094716.015000", "094716.015000", "094735.984000", "094735.984000", "094735.984000", "094735.984000", "094735.984000", "094736.000000", "094736.000000", "094736.000000", "094736.000000", "094736.000000", "094736.000000", "094736.015000", "094736.015000", "094736.015000", "094736.015000", "094736.015000", "094736.031000", "094736.031000", "094736.031000", "094736.031000", "094755.984000", "094755.984000", "094755.984000", "094755.984000", "094755.984000", "094756.000000", "094756.000000", "094756.000000", "094756.000000", "094756.000000", "094756.000000", "094756.015000", "094756.015000", "094756.015000", "094756.015000", "094756.015000", "094756.015000", "094756.015000", "094756.031000", "094756.031000", "094815.984000", "094815.984000", "094815.984000", "094815.984000", "094815.984000", "094816.000000", "094816.000000", "094816.000000", "094816.000000", "094816.000000", "094816.000000", "094816.000000", "094816.000000", "094816.015000", "094816.015000", "094816.015000", "094816.015000", "094816.015000", "094816.015000", "094816.015000", "094835.984000", "094835.984000", "094835.984000", "094836.000000", "094836.000000", "094836.000000", "094836.000000", "094836.000000", "094836.000000", "094836.000000", "094836.000000", "094836.015000", "094836.015000", "094836.015000", "094836.015000", "094836.015000", "094836.015000", "094836.031000", "094836.031000", "094836.031000", "094855.984000", "094855.984000", "094855.984000", "094855.984000", "094855.984000", "094856.000000", "094856.000000", "094856.000000", "094856.000000", "094856.000000", "094856.000000", "094856.015000", "094856.015000", "094856.015000", "094856.015000", "094856.015000", "094856.015000", "094856.031000", "094856.031000", "094856.031000", "094913.125000", "094913.125000", "094913.125000", "094913.125000", "094913.125000", "094913.125000", "094913.140000", "094913.140000", "094913.140000", "094913.140000", "094913.140000", "094913.156000", "094913.156000"],
      "InstanceNumber": [1, 2, 3, 4, 5, 6, 7, 8, 9, 10, 11, 12, 13, 14, 15, 16, 17, 18, 19, 20, 21, 22, 23, 24, 25, 26, 27, 28, 29, 30, 31, 32, 33, 34, 35, 36, 37, 38, 39, 40, 41, 42, 43, 44, 45, 46, 47, 48, 49, 50, 51, 52, 53, 54, 55, 56, 57, 58, 59, 60, 61, 62, 63, 64, 65, 66, 67, 68, 69, 70, 71, 72, 73, 74, 75, 76, 77, 78, 79, 80, 81, 82, 83, 84, 85, 86, 87, 88, 89, 90, 91, 92, 93, 94, 95, 96, 97, 98, 99, 100, 101, 102, 103, 104, 105, 106, 107, 108, 109, 110, 111, 112, 113, 114, 115, 116, 117, 118, 119, 120, 121, 122, 123, 124, 125, 126, 127, 128, 129, 130, 131, 132, 133, 134, 135, 136, 137, 138, 139, 140, 141, 142, 143, 144, 145, 146, 147, 148, 149, 150, 151, 152, 153, 154, 155, 156, 157, 158, 159, 160, 161, 162, 163, 164, 165, 166, 167, 168, 169, 170, 171, 172, 173, 174, 175, 176, 177, 178, 179, 180, 181, 182, 183, 184, 185, 186, 187, 188, 189, 190, 191, 192, 193, 194, 195, 196, 197, 198, 199, 200, 201, 202, 203, 204, 205, 206, 207, 208, 209, 210, 211, 212, 213, 214, 215, 216, 217, 218, 219, 220, 221, 222, 223, 224, 225, 226, 227, 228, 229, 230, 231, 232, 233, 234, 235, 236, 237, 238, 239, 240, 241, 242, 243, 244, 245, 246, 247, 248, 249, 250, 251, 252, 253, 254, 255, 256, 257, 258, 259, 260, 261, 262, 263, 264, 265, 266, 267, 268, 269, 270, 271, 272, 273, 274, 275, 276, 277, 278, 279, 280, 281, 282, 283, 284, 285, 286, 287, 288, 289, 290, 291, 292, 293, 294, 295, 296, 297, 298, 299, 300, 301, 302, 303, 304, 305, 306, 307, 308, 309, 310, 311, 312, 313, 314, 315, 316, 317, 318, 319, 320, 321, 322, 323, 324, 325, 326, 327, 328, 329, 330],
      "LargestImagePixelValue": [2177, 2185, 2152, 2174, 2119, 2149, 2159, 2115, 2168, 2150, 2158, 2140, 2183, 2155, 2152, 2155, 2162, 2134, 2105, 2133, 2141, 2158, 2138, 2180, 2166, 2158, 2157, 2138, 2164, 2156, 2171, 2196, 2153, 2139, 2151, 2174, 2117, 2103, 2127, 2127, 2058, 2089, 2123, 2061, 2051, 2136, 2102, 2058, 2095, 2067, 2079, 2094, 2129, 2085, 2059, 2086, 2126, 2095, 2103, 2125, 2105, 2086, 2068, 2081, 2083, 2062, 2060, 2085, 2088, 2080, 2062, 2080, 2083, 2081, 2065, 2076, 2107, 2099, 2065, 2067, 2065, 2088, 2075, 2081, 2084, 2091, 2091, 2102, 2043, 2110, 2092, 2072, 2078, 2063, 2078, 2068, 2051, 2075, 2066, 2075, 2078, 2106, 2089, 2086, 2056, 2068, 2123, 2069, 2118, 2053, 2023, 2029, 2016, 2019, 2039, 2079, 2089, 2056, 2076, 2076, 2092, 2063, 2028, 2039, 2050, 2050, 2084, 2087, 2055, 2049, 2053, 2060, 2072, 2063, 2044, 2084, 2110, 2073, 2027, 2012, 2068, 2034, 2090, 2055, 2026, 2029, 2057, 2042, 2035, 2048, 2052, 2041, 2052, 2102, 2086, 2106, 2194, 2241, 2259, 2239, 2250, 2233, 2237, 2236, 2248, 2232, 2254, 2225, 2123, 2120, 2145, 2118, 2120, 2149, 2129, 2143, 2125, 2139, 2163, 2133, 2152, 2177, 2160, 2172, 2152, 2164, 2161, 2162, 2174, 2139, 2169, 2157, 2166, 2152, 2122, 2152, 2145, 2159, 2153, 2164, 2163, 2187, 2195, 2161, 2172, 2140, 2161, 2129, 2164, 2179, 2157, 2148, 2117, 2164, 2159, 2148, 2214, 2153, 2167, 2215, 2186, 2184, 2191, 2175, 2177, 2189, 2225, 2188, 2176, 2219, 2182, 2204, 2189, 2193, 2184, 2006, 2138, 2017, 2082, 2039, 2042, 2063, 2082, 2059, 2055, 2078, 2096, 2093, 2078, 2106, 2118, 2087, 2107, 2115, 2130, 2105, 2138, 2124, 2133, 2111, 2112, 2111, 2089, 2124, 2120, 2114, 2122, 2120, 2108, 2112, 2090, 2136, 2120, 2121, 2113, 2121, 2128, 2124, 2111, 2105, 2098, 2092, 2151, 2153, 2154, 2147, 2120, 2133, 2144, 2121, 2147, 2149, 2138, 2153, 2115, 2125, 2110, 2129, 2134, 2147, 2168, 2152, 2149, 2148, 2134, 2120, 2132, 2119, 2133, 2148, 2116, 2139, 2151, 2132, 2148, 2131, 2156, 2136, 2120, 2146, 2139, 2134, 2156, 2157, 2169, 2140, 2149, 2152, 2182, 2146],
      "WindowCenter": [395.0, 397.0, 397.0, 396.0, 397.0, 397.0, 398.0, 399.0, 399.0, 400.0, 399.0, 399.0, 399.0, 398.0, 398.0, 399.0, 399.0, 399.0, 397.0, 398.0, 398.0, 398.0, 397.0, 396.0, 394.0, 395.0, 395.0, 396.0, 397.0, 397.0, 399.0, 399.0, 399.0, 398.0, 398.0, 397.0, 395.0, 394.0, 395.0, 396.0, 394.0, 396.0, 396.0, 394.0, 393.0, 394.0, 394.0, 394.0, 396.0, 397.0, 397.0, 397.0, 397.0, 395.0, 396.0, 397.0, 397.0, 396.0, 395.0, 394.0, 395.0, 395.0, 395.0, 397.0, 397.0, 396.0, 396.0, 395.0, 395.0, 395.0, 396.0, 397.0, 397.0, 397.0, 397.0, 397.0, 396.0, 394.0, 396.0, 395.0, 395.0, 395.0, 396.0, 396.0, 395.0, 395.0, 394.0, 394.0, 393.0, 395.0, 396.0, 395.0, 394.0, 393.0, 393.0, 392.0, 392.0, 393.0, 393.0, 395.0, 395.0, 395.0, 396.0, 396.0, 395.0, 395.0, 397.0, 395.0, 395.0, 396.0, 394.0, 394.0, 394.0, 393.0, 393.0, 395.0, 395.0, 395.0, 396.0, 395.0, 397.0, 396.0, 395.0, 395.0, 395.0, 393.0, 395.0, 396.0, 396.0, 396.0, 396.0, 396.0, 394.0, 393.0, 393.0, 393.0, 394.0, 395.0, 395.0, 395.0, 397.0, 397.0, 397.0, 394.0, 393.0, 392.0, 392.0, 392.0, 392.0, 394.0, 395.0, 397.0, 397.0, 398.0, 400.0, 401.0, 405.0, 405.0, 403.0, 402.0, 401.0, 399.0, 398.0, 397.0, 396.0, 396.0, 396.0, 397.0, 397.0, 398.0, 399.0, 399.0, 398.0, 397.0, 398.0, 398.0, 398.0, 399.0, 400.0, 399.0, 400.0, 400.0, 399.0, 400.0, 399.0, 399.0, 399.0, 399.0, 398.0, 398.0, 399.0, 398.0, 399.0, 401.0, 401.0, 401.0, 401.0, 400.0, 399.0, 398.0, 397.0, 397.0, 397.0, 398.0, 400.0, 400.0, 400.0, 399.0, 399.0, 398.0, 396.0, 396.0, 397.0, 399.0, 400.0, 399.0, 400.0, 399.0, 398.0, 397.0, 396.0, 395.0, 396.0, 396.0, 396.0, 396.0, 397.0, 397.0, 396.0, 397.0, 398.0, 399.0, 398.0, 398.0, 400.0, 399.0, 399.0, 396.0, 397.0, 396.0, 396.0, 395.0, 396.0, 396.0, 396.0, 395.0, 395.0, 394.0, 394.0, 394.0, 395.0, 395.0, 396.0, 397.0, 398.0, 397.0, 397.0, 397.0, 398.0, 399.0, 400.0, 399.0, 398.0, 397.0, 397.0, 396.0, 396.0, 397.0, 397.0, 398.0, 398.0, 399.0, 399.0, 399.0, 400.0, 398.0, 397.0, 397.0, 396.0, 396.0, 396.0, 397.0, 397.0, 399.0, 399.0, 399.0, 398.0, 399.0, 399.0, 398.0, 398.0, 396.0, 395.0, 395.0, 395.0, 396.0, 396.0, 396.0, 396.0, 396.0, 396.0, 397.0, 398.0, 398.0, 398.0, 398.0, 398.0, 398.0, 398.0, 397.0, 398.0, 398.0, 399.0, 398.0, 397.0, 396.0, 396.0, 395.0, 396.0, 397.0, 397.0, 397.0, 397.0, 397.0, 396.0, 396.0, 397.0, 398.0, 398.0, 398.0],
