{
  "AcquisitionMatrixPE": 104,
  "AcquisitionNumber": 1,
  "AcquisitionTime": "10:06:57.125000",
  "BandwidthPerPixelPhaseEncode": 43.054,
  "BaseResolution": 104,
  "CoilString": "C:E1_2",
  "ConversionSoftware": "dcm2niix",
  "ConversionSoftwareVersion": "v1.0.20191031",
  "DerivedVendorReportedEchoSpacing": 0.000669999,
  "DeviceSerialNumber": "18932",
  "DwellTime": 2.8e-06,
  "EchoTime": 0.02,
  "EffectiveEchoSpacing": 0.000223333,
  "FlipAngle": 30,
  "ImageComments": "Unaliased_MB2_PE2",
  "ImageOrientationPatientDICOM": [1, 0, 0, 0, 0.981959, -0.189095],
  "ImageType": [
    "ORIGINAL",
    "PRIMARY",
    "M",
    "MB",
    "ND",
    "MOSAIC"
],
  "ImagingFrequency": 297.229,
  "InPlanePhaseEncodingDirectionDICOM": "COL",
  "InstitutionAddress": "Richmond_Street_North_1151_London_409EF2_Ontario_CA_N6A_5B7",
  "InstitutionName": "Robarts_Reserch_Institute",
  "InstitutionalDepartmentName": "Department",
  "MRAcquisitionType": "2D",
  "MagneticFieldStrength": 6.98,
  "Manufacturer": "Siemens",
  "ManufacturersModelName": "Investigational_Device_7T",
  "Modality": "MR",
  "MultibandAccelerationFactor": 2,
  "ParallelReductionFactorInPlane": 3,
  "PartialFourier": 0.875,
  "PatientPosition": "HFS",
  "PercentPhaseFOV": 100,
  "PhaseEncodingDirection": "j-",
  "PhaseEncodingSteps": 91,
  "PhaseResolution": 1,
  "PixelBandwidth": 1717,
  "ProcedureStepDescription": "Diedrichsen_SeqRep4",
  "ProtocolName": "mbep2d_bold_mb2_p3_AP_2iso",
  "PulseSequenceDetails": "%CustomerSeq%_cmrr_mbep2d_bold",
  "ReceiveCoilName": "CFMM_8Tx32Rx",
  "ReconMatrixPE": 104,
  "RefLinesPE": 36,
  "RepetitionTime": 1,
  "ScanOptions": "PFP_FS",
  "ScanningSequence": "EP",
  "SequenceName": "epfid2d1_104",
  "SequenceVariant": "SK_SS",
  "SeriesDescription": "mbep2d_bold_mb2_p3_AP_2iso",
  "SeriesNumber": 29,
  "ShimSetting": [38, 2034, 46, 1324, 90, 41, 125, -176],
  "SliceThickness": 2,
  "SliceTiming": [0, 0.2275, 0.455, 0.685, 0.9125, 0.1375, 0.365, 0.5925, 0.82, 0.045, 0.2725, 0.5025, 0.73, 0.9575, 0.1825, 0.41, 0.6375, 0.8675, 0.09, 0.32, 0.5475, 0.775, 0, 0.2275, 0.455, 0.685, 0.9125, 0.1375, 0.365, 0.5925, 0.82, 0.045, 0.2725, 0.5025, 0.73, 0.9575, 0.1825, 0.41, 0.6375, 0.8675, 0.09, 0.32, 0.5475, 0.775],
  "SoftwareVersions": "syngo_MR_B17",
  "SpacingBetweenSlices": 2,
  "StationName": "MASTER",
  "TaskName": "dsp",
  "TotalReadoutTime": 0.0230033,
  "TxRefAmp": 120,
  "dcmmeta_affine": [
    [-2.0, 0.0, 0.0, 109.08474731445312],
    [0.0, 1.9639173746109009, -0.37819087505340576, -92.75724792480469],
    [0.0, 0.37819087505340576, 1.9639173746109009, -39.043243408203125],
    [0.0, 0.0, 0.0, 1.0]
],
  "dcmmeta_reorient_transform": [
    [0.0, -1.0, 0.0, 103.0],
    [1.0, 0.0, 0.0, 0.0],
    [0.0, 0.0, 1.0, 0.0],
    [0.0, 0.0, 0.0, 1.0]
],
  "dcmmeta_shape": [104, 104, 44, 330],
  "dcmmeta_slice_dim": 2,
  "dcmmeta_version": 0.6,
  "global": {
    "const": {
      "AcquisitionMatrix": [104, 0, 0, 104],
      "AngioFlag": "N",
      "BitsAllocated": 16,
      "BitsStored": 12,
      "Columns": 728,
      "EchoNumbers": 1,
      "EchoTime": 20.0,
      "EchoTrainLength": 1,
      "FlipAngle": 30.0,
      "HighBit": 11,
      "ImageOrientationPatient": [1.0, 0.0, 0.0, 0.0, 0.98195871320217, -0.1890954403637],
      "ImagePositionPatient": [-733.08474588394, -722.26848675595, 117.90597216194],
      "ImageType": [
        "ORIGINAL",
        "PRIMARY",
        "M",
        "MB",
        "ND",
        "MOSAIC"
],
      "ImagedNucleus": "1H",
      "ImagingFrequency": 297.228964,
      "InPlanePhaseEncodingDirection": "COL",
      "MRAcquisitionType": "2D",
      "MagneticFieldStrength": 6.98,
      "Manufacturer": "SIEMENS",
      "ManufacturerModelName": "Investigational_Device_7T",
      "Modality": "MR",
      "NumberOfAverages": 1.0,
      "NumberOfPhaseEncodingSteps": 91,
      "PercentPhaseFieldOfView": 100.0,
      "PercentSampling": 100.0,
      "PerformedProcedureStepStartTime": "091304.843000",
      "PhotometricInterpretation": "MONOCHROME2",
      "PixelBandwidth": 1717.0,
      "PixelRepresentation": 0,
      "PixelSpacing": [2.0, 2.0],
      "ProtocolName": "mbep2d_bold_mb2_p3_AP 2iso",
      "RepetitionTime": 1000.0,
      "Rows": 728,
      "SAR": 0.0,
      "SamplesPerPixel": 1,
      "ScanOptions": [
        "PFP",
        "FS"
],
      "ScanningSequence": "EP",
      "SequenceName": "epfid2d1_104",
      "SequenceVariant": [
        "SK",
        "SS"
],
      "SeriesDescription": "mbep2d_bold_mb2_p3_AP 2iso",
      "SeriesNumber": 29,
      "SeriesTime": "100736.015000",
      "SliceLocation": -20.798880860968,
      "SliceThickness": 2.0,
      "SmallestImagePixelValue": 0,
      "SoftwareVersions": "syngo MR B17",
      "SpacingBetweenSlices": 1.9999999720445,
      "SpecificCharacterSet": "ISO_IR 100",
      "StudyID": "1",
      "StudyTime": "091304.796000",
      "TransmitCoilName": "CFMM_8Tx32Rx",
      "VariableFlipAngleFlag": "N",
      "WindowCenterWidthExplanation": "Algo1",
      "dBdt": 0.0},
    "slices": {}
  },
  "time": {
    "samples": {
      "AcquisitionNumber": [1, 2, 3, 4, 5, 6, 7, 8, 9, 10, 11, 12, 13, 14, 15, 16, 17, 18, 19, 20, 21, 22, 23, 24, 25, 26, 27, 28, 29, 30, 31, 32, 33, 34, 35, 36, 37, 38, 39, 40, 41, 42, 43, 44, 45, 46, 47, 48, 49, 50, 51, 52, 53, 54, 55, 56, 57, 58, 59, 60, 61, 62, 63, 64, 65, 66, 67, 68, 69, 70, 71, 72, 73, 74, 75, 76, 77, 78, 79, 80, 81, 82, 83, 84, 85, 86, 87, 88, 89, 90, 91, 92, 93, 94, 95, 96, 97, 98, 99, 100, 101, 102, 103, 104, 105, 106, 107, 108, 109, 110, 111, 112, 113, 114, 115, 116, 117, 118, 119, 120, 121, 122, 123, 124, 125, 126, 127, 128, 129, 130, 131, 132, 133, 134, 135, 136, 137, 138, 139, 140, 141, 142, 143, 144, 145, 146, 147, 148, 149, 150, 151, 152, 153, 154, 155, 156, 157, 158, 159, 160, 161, 162, 163, 164, 165, 166, 167, 168, 169, 170, 171, 172, 173, 174, 175, 176, 177, 178, 179, 180, 181, 182, 183, 184, 185, 186, 187, 188, 189, 190, 191, 192, 193, 194, 195, 196, 197, 198, 199, 200, 201, 202, 203, 204, 205, 206, 207, 208, 209, 210, 211, 212, 213, 214, 215, 216, 217, 218, 219, 220, 221, 222, 223, 224, 225, 226, 227, 228, 229, 230, 231, 232, 233, 234, 235, 236, 237, 238, 239, 240, 241, 242, 243, 244, 245, 246, 247, 248, 249, 250, 251, 252, 253, 254, 255, 256, 257, 258, 259, 260, 261, 262, 263, 264, 265, 266, 267, 268, 269, 270, 271, 272, 273, 274, 275, 276, 277, 278, 279, 280, 281, 282, 283, 284, 285, 286, 287, 288, 289, 290, 291, 292, 293, 294, 295, 296, 297, 298, 299, 300, 301, 302, 303, 304, 305, 306, 307, 308, 309, 310, 311, 312, 313, 314, 315, 316, 317, 318, 319, 320, 321, 322, 323, 324, 325, 326, 327, 328, 329, 330],
      "AcquisitionTime": ["100657.125000", "100658.130000", "100659.132500", "100700.137500", "100701.140000", "100702.145000", "100703.150000", "100704.152500", "100705.157500", "100706.160000", "100707.165000", "100708.170000", "100709.172500", "100710.177500", "100711.180000", "100712.185000", "100713.190000", "100714.192500", "100715.197500", "100716.200000", "100717.205000", "100718.210000", "100719.212500", "100720.217500", "100721.222500", "100722.225000", "100723.230000", "100724.232500", "100725.237500", "100726.242500", "100727.245000", "100728.250000", "100729.252500", "100730.257500", "100731.262500", "100732.265000", "100733.270000", "100734.272500", "100735.277500", "100736.282500", "100737.285000", "100738.290000", "100739.292500", "100740.297500", "100741.302500", "100742.305000", "100743.310000", "100744.312500", "100745.317500", "100746.322500", "100747.325000", "100748.330000", "100749.332500", "100750.337500", "100751.342500", "100752.345000", "100753.350000", "100754.355000", "100755.357500", "100756.362500", "100757.365000", "100758.370000", "100759.375000", "100800.377500", "100801.382500", "100802.385000", "100803.390000", "100804.395000", "100805.397500", "100806.402500", "100807.405000", "100808.410000", "100809.415000", "100810.417500", "100811.422500", "100812.425000", "100813.430000", "100814.435000", "100815.437500", "100816.442500", "100817.445000", "100818.450000", "100819.455000", "100820.457500", "100821.462500", "100822.467500", "100823.470000", "100824.475000", "100825.477500", "100826.482500", "100827.487500", "100828.490000", "100829.495000", "100830.497500", "100831.502500", "100832.507500", "100833.510000", "100834.515000", "100835.517500", "100836.522500", "100837.527500", "100838.530000", "100839.535000", "100840.537500", "100841.542500", "100842.547500", "100843.550000", "100844.555000", "100845.557500", "100846.562500", "100847.567500", "100848.570000", "100849.575000", "100850.577500", "100851.582500", "100852.587500", "100853.590000", "100854.595000", "100855.600000", "100856.602500", "100857.607500", "100858.610000", "100859.615000", "100900.620000", "100901.622500", "100902.627500", "100903.630000", "100904.635000", "100905.640000", "100906.642500", "100907.647500", "100908.650000", "100909.655000", "100910.660000", "100911.662500", "100912.667500", "100913.670000", "100914.675000", "100915.680000", "100916.682500", "100917.687500", "100918.690000", "100919.695000", "100920.700000", "100921.702500", "100922.707500", "100923.712500", "100924.715000", "100925.720000", "100926.722500", "100927.727500", "100928.732500", "100929.735000", "100930.740000", "100931.742500", "100932.747500", "100933.752500", "100934.755000", "100935.760000", "100936.762500", "100937.767500", "100938.772500", "100939.775000", "100940.780000", "100941.782500", "100942.787500", "100943.792500", "100944.795000", "100945.800000", "100946.802500", "100947.807500", "100948.812500", "100949.815000", "100950.820000", "100951.822500", "100952.827500", "100953.832500", "100954.835000", "100955.840000", "100956.845000", "100957.847500", "100958.852500", "100959.855000", "101000.860000", "101001.865000", "101002.867500", "101003.872500", "101004.875000", "101005.880000", "101006.885000", "101007.887500", "101008.892500", "101009.895000", "101010.900000", "101011.905000", "101012.907500", "101013.912500", "101014.915000", "101015.920000", "101016.925000", "101017.927500", "101018.932500", "101019.935000", "101020.940000", "101021.945000", "101022.947500", "101023.952500", "101024.955000", "101025.960000", "101026.965000", "101027.967500", "101028.972500", "101029.977500", "101030.980000", "101031.985000", "101032.987500", "101033.992500", "101034.997500", "101036.000000", "101037.005000", "101038.007500", "101039.012500", "101040.017500", "101041.020000", "101042.025000", "101043.027500", "101044.032500", "101045.037500", "101046.040000", "101047.045000", "101048.047500", "101049.052500", "101050.057500", "101051.060000", "101052.065000", "101053.067500", "101054.072500", "101055.077500", "101056.080000", "101057.085000", "101058.090000", "101059.092500", "101100.097500", "101101.100000", "101102.105000", "101103.110000", "101104.112500", "101105.117500", "101106.120000", "101107.125000", "101108.130000", "101109.132500", "101110.137500", "101111.140000", "101112.145000", "101113.150000", "101114.152500", "101115.157500", "101116.160000", "101117.165000", "101118.170000", "101119.172500", "101120.177500", "101121.180000", "101122.185000", "101123.190000", "101124.192500", "101125.197500", "101126.200000", "101127.205000", "101128.210000", "101129.212500", "101130.217500", "101131.222500", "101132.225000", "101133.230000", "101134.232500", "101135.237500", "101136.242500", "101137.245000", "101138.250000", "101139.252500", "101140.257500", "101141.262500", "101142.265000", "101143.270000", "101144.272500", "101145.277500", "101146.282500", "101147.285000", "101148.290000", "101149.292500", "101150.297500", "101151.302500", "101152.305000", "101153.310000", "101154.312500", "101155.317500", "101156.322500", "101157.325000", "101158.330000", "101159.332500", "101200.337500", "101201.342500", "101202.345000", "101203.350000", "101204.355000", "101205.357500", "101206.362500", "101207.365000", "101208.370000", "101209.375000", "101210.377500", "101211.382500", "101212.385000", "101213.390000", "101214.395000", "101215.397500", "101216.402500", "101217.405000", "101218.410000", "101219.415000", "101220.417500", "101221.422500", "101222.425000", "101223.430000", "101224.435000", "101225.437500", "101226.442500", "101227.445000"],
      "ContentTime": ["100736.015000", "100736.015000", "100736.031000", "100736.031000", "100736.031000", "100736.031000", "100736.031000", "100736.031000", "100736.031000", "100736.031000", "100736.046000", "100736.046000", "100736.046000", "100736.046000", "100736.046000", "100736.062000", "100736.078000", "100736.078000", "100736.078000", "100736.078000", "100736.078000", "100736.078000", "100736.078000", "100736.078000", "100736.093000", "100736.093000", "100736.093000", "100736.093000", "100736.093000", "100736.093000", "100736.093000", "100736.109000", "100736.109000", "100736.109000", "100736.109000", "100736.109000", "100736.109000", "100755.984000", "100755.984000", "100755.984000", "100755.984000", "100755.984000", "100756.000000", "100756.000000", "100756.000000", "100756.000000", "100756.000000", "100756.000000", "100756.000000", "100756.000000", "100756.015000", "100756.015000", "100756.015000", "100756.015000", "100756.015000", "100756.015000", "100756.015000", "100815.984000", "100815.984000", "100815.984000", "100815.984000", "100815.984000", "100816.000000", "100816.000000", "100816.000000", "100816.000000", "100816.000000", "100816.015000", "100816.015000", "100816.015000", "100816.015000", "100816.015000", "100816.015000", "100816.015000", "100816.031000", "100816.031000", "100816.031000", "100835.984000", "100835.984000", "100835.984000", "100835.984000", "100835.984000", "100836.000000", "100836.000000", "100836.000000", "100836.000000", "100836.000000", "100836.000000", "100836.000000", "100836.000000", "100836.015000", "100836.015000", "100836.015000", "100836.015000", "100836.015000", "100836.015000", "100836.015000", "100855.984000", "100855.984000", "100855.984000", "100855.984000", "100855.984000", "100856.000000", "100856.000000", "100856.000000", "100856.000000", "100856.000000", "100856.000000", "100856.000000", "100856.000000", "100856.015000", "100856.015000", "100856.015000", "100856.015000", "100856.015000", "100856.015000", "100856.015000", "100915.984000", "100915.984000", "100915.984000", "100915.984000", "100915.984000", "100916.000000", "100916.000000", "100916.000000", "100916.000000", "100916.000000", "100916.000000", "100916.000000", "100916.000000", "100916.015000", "100916.015000", "100916.015000", "100916.015000", "100916.015000", "100916.015000", "100916.015000", "100935.984000", "100935.984000", "100935.984000", "100935.984000", "100935.984000", "100936.000000", "100936.000000", "100936.000000", "100936.000000", "100936.000000", "100936.000000", "100936.015000", "100936.015000", "100936.015000", "100936.015000", "100936.015000", "100936.015000", "100936.015000", "100936.031000", "100936.031000", "100955.984000", "100955.984000", "100955.984000", "100956.000000", "100956.000000", "100956.000000", "100956.000000", "100956.000000", "100956.015000", "100956.015000", "100956.015000", "100956.015000", "100956.015000", "100956.015000", "100956.015000", "100956.031000", "100956.031000", "100956.031000", "100956.031000", "100956.031000", "101015.984000", "101015.984000", "101015.984000", "101015.984000", "101015.984000", "101016.000000", "101016.000000", "101016.000000", "101016.015000", "101016.015000", "101016.015000", "101016.015000", "101016.015000", "101016.015000", "101016.031000", "101016.031000", "101016.031000", "101016.031000", "101016.031000", "101016.031000", "101035.984000", "101035.984000", "101035.984000", "101035.984000", "101035.984000", "101036.000000", "101036.000000", "101036.000000", "101036.015000", "101036.015000", "101036.015000", "101036.015000", "101036.015000", "101036.031000", "101036.031000", "101036.031000", "101036.031000", "101036.031000", "101036.031000", "101036.046000", "101055.984000", "101055.984000", "101055.984000", "101056.000000", "101056.000000", "101056.000000", "101056.000000", "101056.000000", "101056.000000", "101056.000000", "101056.015000", "101056.015000", "101056.015000", "101056.015000", "101056.015000", "101056.015000", "101056.015000", "101056.031000", "101056.031000", "101056.031000", "101115.984000", "101115.984000", "101115.984000", "101115.984000", "101115.984000", "101116.000000", "101116.000000", "101116.000000", "101116.000000", "101116.000000", "101116.000000", "101116.000000", "101116.000000", "101116.015000", "101116.015000", "101116.015000", "101116.015000", "101116.015000", "101116.015000", "101116.015000", "101135.984000", "101135.984000", "101135.984000", "101135.984000", "101135.984000", "101136.000000", "101136.000000", "101136.000000", "101136.000000", "101136.015000", "101136.015000", "101136.015000", "101136.015000", "101136.015000", "101136.015000", "101136.015000", "101136.015000", "101136.031000", "101136.031000", "101136.031000", "101155.984000", "101155.984000", "101155.984000", "101155.984000", "101155.984000", "101156.000000", "101156.000000", "101156.000000", "101156.000000", "101156.000000", "101156.000000", "101156.000000", "101156.000000", "101156.015000", "101156.015000", "101156.015000", "101156.015000", "101156.031000", "101156.031000", "101156.031000", "101215.984000", "101215.984000", "101215.984000", "101215.984000", "101215.984000", "101216.000000", "101216.000000", "101216.000000", "101216.000000", "101216.000000", "101216.015000", "101216.015000", "101216.015000", "101216.015000", "101216.015000", "101216.015000", "101216.015000", "101216.031000", "101216.031000", "101216.031000", "101233.671000", "101233.671000", "101233.671000", "101233.671000", "101233.687000", "101233.687000", "101233.687000", "101233.687000", "101233.687000", "101233.687000", "101233.687000", "101233.703000", "101233.703000"],
      "InstanceCreationTime": ["100736.015000", "100736.015000", "100736.031000", "100736.031000", "100736.031000", "100736.031000", "100736.031000", "100736.031000", "100736.031000", "100736.031000", "100736.046000", "100736.046000", "100736.046000", "100736.046000", "100736.046000", "100736.062000", "100736.078000", "100736.078000", "100736.078000", "100736.078000", "100736.078000", "100736.078000", "100736.078000", "100736.078000", "100736.093000", "100736.093000", "100736.093000", "100736.093000", "100736.093000", "100736.093000", "100736.093000", "100736.109000", "100736.109000", "100736.109000", "100736.109000", "100736.109000", "100736.109000", "100755.984000", "100755.984000", "100755.984000", "100755.984000", "100755.984000", "100756.000000", "100756.000000", "100756.000000", "100756.000000", "100756.000000", "100756.000000", "100756.000000", "100756.000000", "100756.015000", "100756.015000", "100756.015000", "100756.015000", "100756.015000", "100756.015000", "100756.015000", "100815.984000", "100815.984000", "100815.984000", "100815.984000", "100815.984000", "100816.000000", "100816.000000", "100816.000000", "100816.000000", "100816.000000", "100816.015000", "100816.015000", "100816.015000", "100816.015000", "100816.015000", "100816.015000", "100816.015000", "100816.031000", "100816.031000", "100816.031000", "100835.984000", "100835.984000", "100835.984000", "100835.984000", "100835.984000", "100836.000000", "100836.000000", "100836.000000", "100836.000000", "100836.000000", "100836.000000", "100836.000000", "100836.000000", "100836.015000", "100836.015000", "100836.015000", "100836.015000", "100836.015000", "100836.015000", "100836.015000", "100855.984000", "100855.984000", "100855.984000", "100855.984000", "100855.984000", "100856.000000", "100856.000000", "100856.000000", "100856.000000", "100856.000000", "100856.000000", "100856.000000", "100856.000000", "100856.015000", "100856.015000", "100856.015000", "100856.015000", "100856.015000", "100856.015000", "100856.015000", "100915.984000", "100915.984000", "100915.984000", "100915.984000", "100915.984000", "100916.000000", "100916.000000", "100916.000000", "100916.000000", "100916.000000", "100916.000000", "100916.000000", "100916.000000", "100916.015000", "100916.015000", "100916.015000", "100916.015000", "100916.015000", "100916.015000", "100916.015000", "100935.984000", "100935.984000", "100935.984000", "100935.984000", "100935.984000", "100936.000000", "100936.000000", "100936.000000", "100936.000000", "100936.000000", "100936.000000", "100936.015000", "100936.015000", "100936.015000", "100936.015000", "100936.015000", "100936.015000", "100936.015000", "100936.031000", "100936.031000", "100955.984000", "100955.984000", "100955.984000", "100956.000000", "100956.000000", "100956.000000", "100956.000000", "100956.000000", "100956.015000", "100956.015000", "100956.015000", "100956.015000", "100956.015000", "100956.015000", "100956.015000", "100956.031000", "100956.031000", "100956.031000", "100956.031000", "100956.031000", "101015.984000", "101015.984000", "101015.984000", "101015.984000", "101015.984000", "101016.000000", "101016.000000", "101016.000000", "101016.015000", "101016.015000", "101016.015000", "101016.015000", "101016.015000", "101016.015000", "101016.031000", "101016.031000", "101016.031000", "101016.031000", "101016.031000", "101016.031000", "101035.984000", "101035.984000", "101035.984000", "101035.984000", "101035.984000", "101036.000000", "101036.000000", "101036.000000", "101036.015000", "101036.015000", "101036.015000", "101036.015000", "101036.015000", "101036.031000", "101036.031000", "101036.031000", "101036.031000", "101036.031000", "101036.031000", "101036.046000", "101055.984000", "101055.984000", "101055.984000", "101056.000000", "101056.000000", "101056.000000", "101056.000000", "101056.000000", "101056.000000", "101056.000000", "101056.015000", "101056.015000", "101056.015000", "101056.015000", "101056.015000", "101056.015000", "101056.015000", "101056.031000", "101056.031000", "101056.031000", "101115.984000", "101115.984000", "101115.984000", "101115.984000", "101115.984000", "101116.000000", "101116.000000", "101116.000000", "101116.000000", "101116.000000", "101116.000000", "101116.000000", "101116.000000", "101116.015000", "101116.015000", "101116.015000", "101116.015000", "101116.015000", "101116.015000", "101116.015000", "101135.984000", "101135.984000", "101135.984000", "101135.984000", "101135.984000", "101136.000000", "101136.000000", "101136.000000", "101136.000000", "101136.015000", "101136.015000", "101136.015000", "101136.015000", "101136.015000", "101136.015000", "101136.015000", "101136.015000", "101136.031000", "101136.031000", "101136.031000", "101155.984000", "101155.984000", "101155.984000", "101155.984000", "101155.984000", "101156.000000", "101156.000000", "101156.000000", "101156.000000", "101156.000000", "101156.000000", "101156.000000", "101156.000000", "101156.015000", "101156.015000", "101156.015000", "101156.015000", "101156.031000", "101156.031000", "101156.031000", "101215.984000", "101215.984000", "101215.984000", "101215.984000", "101215.984000", "101216.000000", "101216.000000", "101216.000000", "101216.000000", "101216.000000", "101216.015000", "101216.015000", "101216.015000", "101216.015000", "101216.015000", "101216.015000", "101216.015000", "101216.031000", "101216.031000", "101216.031000", "101233.671000", "101233.671000", "101233.671000", "101233.671000", "101233.687000", "101233.687000", "101233.687000", "101233.687000", "101233.687000", "101233.687000", "101233.687000", "101233.703000", "101233.703000"],
      "InstanceNumber": [1, 2, 3, 4, 5, 6, 7, 8, 9, 10, 11, 12, 13, 14, 15, 16, 17, 18, 19, 20, 21, 22, 23, 24, 25, 26, 27, 28, 29, 30, 31, 32, 33, 34, 35, 36, 37, 38, 39, 40, 41, 42, 43, 44, 45, 46, 47, 48, 49, 50, 51, 52, 53, 54, 55, 56, 57, 58, 59, 60, 61, 62, 63, 64, 65, 66, 67, 68, 69, 70, 71, 72, 73, 74, 75, 76, 77, 78, 79, 80, 81, 82, 83, 84, 85, 86, 87, 88, 89, 90, 91, 92, 93, 94, 95, 96, 97, 98, 99, 100, 101, 102, 103, 104, 105, 106, 107, 108, 109, 110, 111, 112, 113, 114, 115, 116, 117, 118, 119, 120, 121, 122, 123, 124, 125, 126, 127, 128, 129, 130, 131, 132, 133, 134, 135, 136, 137, 138, 139, 140, 141, 142, 143, 144, 145, 146, 147, 148, 149, 150, 151, 152, 153, 154, 155, 156, 157, 158, 159, 160, 161, 162, 163, 164, 165, 166, 167, 168, 169, 170, 171, 172, 173, 174, 175, 176, 177, 178, 179, 180, 181, 182, 183, 184, 185, 186, 187, 188, 189, 190, 191, 192, 193, 194, 195, 196, 197, 198, 199, 200, 201, 202, 203, 204, 205, 206, 207, 208, 209, 210, 211, 212, 213, 214, 215, 216, 217, 218, 219, 220, 221, 222, 223, 224, 225, 226, 227, 228, 229, 230, 231, 232, 233, 234, 235, 236, 237, 238, 239, 240, 241, 242, 243, 244, 245, 246, 247, 248, 249, 250, 251, 252, 253, 254, 255, 256, 257, 258, 259, 260, 261, 262, 263, 264, 265, 266, 267, 268, 269, 270, 271, 272, 273, 274, 275, 276, 277, 278, 279, 280, 281, 282, 283, 284, 285, 286, 287, 288, 289, 290, 291, 292, 293, 294, 295, 296, 297, 298, 299, 300, 301, 302, 303, 304, 305, 306, 307, 308, 309, 310, 311, 312, 313, 314, 315, 316, 317, 318, 319, 320, 321, 322, 323, 324, 325, 326, 327, 328, 329, 330],
      "LargestImagePixelValue": [2102, 2080, 2057, 2049, 2077, 2092, 2045, 2086, 2045, 1979, 1967, 1983, 1979, 1990, 2002, 2015, 2009, 2016, 2032, 2036, 2026, 2009, 2040, 2033, 2037, 2061, 2063, 2055, 2031, 2051, 2073, 2074, 2062, 2063, 2034, 2081, 2077, 2062, 2048, 2062, 2043, 2067, 2066, 2053, 2052, 2041, 2052, 2040, 2064, 2050, 2066, 2043, 2089, 2048, 2042, 1992, 2066, 1956, 1911, 2032, 1989, 2001, 2034, 2001, 2016, 2044, 2024, 2028, 2023, 2037, 2062, 2068, 2028, 2039, 2022, 2032, 2017, 2031, 2076, 2072, 2038, 2062, 2091, 2031, 2037, 1963, 1959, 1923, 1972, 1941, 1999, 1971, 1959, 2019, 2007, 2018, 2046, 1996, 2030, 2081, 2041, 2041, 2035, 2018, 2023, 2008, 2011, 2043, 2031, 2052, 2029, 2059, 2066, 2019, 1998, 2032, 2014, 2025, 2023, 1967, 1991, 2007, 1996, 2026, 2022, 2022, 2052, 2044, 2012, 2049, 2050, 2018, 2039, 2046, 2043, 2033, 2038, 2037, 2028, 2013, 2032, 2043, 2042, 2033, 2005, 2050, 2012, 2051, 2028, 2047, 2055, 2040, 2075, 2028, 2038, 2030, 2062, 2040, 2028, 2042, 2037, 2067, 2043, 2073, 1984, 2055, 2062, 2060, 2022, 2048, 2033, 2034, 2061, 2034, 2065, 2090, 2005, 2011, 1998, 2036, 1994, 2000, 2040, 2029, 2012, 1978, 2009, 2020, 2033, 2013, 2044, 2049, 2026, 2028, 2078, 2046, 2050, 2012, 2022, 2023, 2021, 1993, 1980, 1971, 1990, 1971, 2087, 1981, 2016, 2016, 1997, 2000, 2014, 2078, 2059, 2025, 2028, 2081, 2059, 2085, 2104, 2091, 2062, 2120, 2101, 2096, 2135, 2137, 2105, 2134, 2118, 2134, 2104, 2136, 2124, 2143, 2164, 2126, 2143, 2136, 2113, 2128, 2138, 2134, 2124, 2133, 2135, 2133, 2105, 2113, 2142, 2151, 2104, 2095, 2136, 2120, 2107, 2115, 2120, 2103, 2101, 2115, 2133, 2065, 2075, 2073, 2067, 2123, 2078, 2064, 2131, 2096, 2058, 2098, 2106, 2079, 2071, 2063, 2074, 2080, 2070, 2055, 2076, 2083, 2072, 2058, 2042, 2056, 2042, 2039, 2036, 2081, 2057, 2099, 2048, 2073, 2080, 2068, 2070, 2088, 2062, 2067, 2073, 2059, 2055, 2080, 2098, 2099, 2092, 2085, 2066, 2119, 2103, 2119, 2154, 2115, 2089, 2111, 2110, 2114, 2111, 2121, 2123, 2115, 2089, 2106, 2096, 2087, 2102, 2122],
      "WindowCenter": [397.0, 396.0, 395.0, 394.0, 394.0, 395.0, 394.0, 395.0, 394.0, 396.0, 397.0, 396.0, 397.0, 398.0, 399.0, 398.0, 396.0, 393.0, 391.0, 390.0, 389.0, 390.0, 391.0, 392.0, 392.0, 393.0, 394.0, 395.0, 396.0, 397.0, 398.0, 398.0, 398.0, 397.0, 398.0, 398.0, 398.0, 397.0, 396.0, 396.0, 395.0, 395.0, 397.0, 397.0, 397.0, 397.0, 397.0, 397.0, 395.0, 394.0, 395.0, 397.0, 397.0, 397.0, 396.0, 397.0, 398.0, 396.0, 398.0, 399.0, 398.0, 397.0, 397.0, 396.0, 394.0, 394.0, 394.0, 394.0, 396.0, 397.0, 399.0, 399.0, 400.0, 401.0, 400.0, 400.0, 399.0, 398.0, 398.0, 399.0, 399.0, 399.0, 399.0, 399.0, 400.0, 399.0, 398.0, 396.0, 395.0, 394.0, 393.0, 392.0, 391.0, 391.0, 390.0, 390.0, 390.0, 390.0, 391.0, 393.0, 394.0, 395.0, 397.0, 398.0, 398.0, 398.0, 398.0, 398.0, 398.0, 399.0, 398.0, 398.0, 398.0, 397.0, 397.0, 398.0, 397.0, 397.0, 396.0, 396.0, 395.0, 396.0, 397.0, 395.0, 395.0, 395.0, 395.0, 396.0, 396.0, 397.0, 396.0, 396.0, 397.0, 397.0, 397.0, 397.0, 396.0, 395.0, 394.0, 394.0, 392.0, 394.0, 395.0, 396.0, 396.0, 397.0, 395.0, 395.0, 395.0, 395.0, 396.0, 396.0, 397.0, 396.0, 396.0, 397.0, 397.0, 396.0, 396.0, 396.0, 397.0, 397.0, 397.0, 397.0, 397.0, 399.0, 399.0, 399.0, 399.0, 398.0, 397.0, 396.0, 395.0, 394.0, 395.0, 395.0, 395.0, 396.0, 397.0, 398.0, 399.0, 398.0, 398.0, 397.0, 396.0, 394.0, 395.0, 395.0, 395.0, 396.0, 398.0, 398.0, 397.0, 397.0, 397.0, 396.0, 397.0, 397.0, 398.0, 398.0, 398.0, 396.0, 395.0, 395.0, 395.0, 394.0, 396.0, 400.0, 401.0, 400.0, 399.0, 397.0, 397.0, 398.0, 398.0, 397.0, 399.0, 399.0, 398.0, 399.0, 401.0, 401.0, 401.0, 401.0, 398.0, 398.0, 398.0, 399.0, 399.0, 399.0, 399.0, 397.0, 396.0, 396.0, 397.0, 398.0, 398.0, 399.0, 400.0, 399.0, 399.0, 399.0, 400.0, 399.0, 399.0, 400.0, 400.0, 399.0, 399.0, 399.0, 398.0, 398.0, 397.0, 396.0, 397.0, 397.0, 397.0, 398.0, 398.0, 399.0, 400.0, 401.0, 400.0, 399.0, 398.0, 399.0, 399.0, 400.0, 399.0, 399.0, 398.0, 398.0, 397.0, 397.0, 397.0, 397.0, 396.0, 396.0, 396.0, 395.0, 395.0, 394.0, 395.0, 397.0, 398.0, 399.0, 399.0, 398.0, 398.0, 395.0, 394.0, 394.0, 394.0, 395.0, 395.0, 395.0, 395.0, 395.0, 395.0, 395.0, 394.0, 396.0, 397.0, 397.0, 397.0, 398.0, 397.0, 395.0, 395.0, 395.0, 395.0, 397.0, 397.0, 398.0, 397.0, 396.0, 395.0, 394.0, 393.0, 395.0, 395.0, 396.0, 395.0, 396.0, 396.0, 396.0, 396.0, 396.0, 395.0, 396.0],
