{
  "AcquisitionMatrixPE": 104,
  "AcquisitionNumber": 1,
  "AcquisitionTime": "10:08:58.610000",
  "BandwidthPerPixelPhaseEncode": 43.054,
  "BaseResolution": 104,
  "CoilString": "C:E1_2",
  "ConversionSoftware": "dcm2niix",
  "ConversionSoftwareVersion": "v1.0.20191031",
  "DerivedVendorReportedEchoSpacing": 0.000669999,
  "DeviceSerialNumber": "18932",
  "DwellTime": 2.8e-06,
  "EchoTime": 0.02,
  "EffectiveEchoSpacing": 0.000223333,
  "FlipAngle": 30,
  "ImageComments": "Unaliased_MB2_PE2",
  "ImageOrientationPatientDICOM": [1, 2e-16, 0, -2e-16, 0.982613, -0.185667],
  "ImageType": [
    "ORIGINAL",
    "PRIMARY",
    "M",
    "MB",
    "ND",
    "MOSAIC"
],
  "ImagingFrequency": 297.229,
  "InPlanePhaseEncodingDirectionDICOM": "COL",
  "InstitutionAddress": "Richmond_Street_North_1151_London_409EF2_Ontario_CA_N6A_5B7",
  "InstitutionName": "Robarts_Reserch_Institute",
  "InstitutionalDepartmentName": "Department",
  "MRAcquisitionType": "2D",
  "MagneticFieldStrength": 6.98,
  "Manufacturer": "Siemens",
  "ManufacturersModelName": "Investigational_Device_7T",
  "Modality": "MR",
  "MultibandAccelerationFactor": 2,
  "ParallelReductionFactorInPlane": 3,
  "PartialFourier": 0.875,
  "PatientPosition": "HFS",
  "PercentPhaseFOV": 100,
  "PhaseEncodingDirection": "j-",
  "PhaseEncodingSteps": 91,
  "PhaseResolution": 1,
  "PixelBandwidth": 1717,
  "ProcedureStepDescription": "Diedrichsen_SeqRep4",
  "ProtocolName": "mbep2d_bold_mb2_p3_AP_2iso",
  "PulseSequenceDetails": "%CustomerSeq%_cmrr_mbep2d_bold",
  "ReceiveCoilName": "CFMM_8Tx32Rx",
  "ReconMatrixPE": 104,
  "RefLinesPE": 36,
  "RepetitionTime": 1,
  "ScanOptions": "PFP_FS",
  "ScanningSequence": "EP",
  "SequenceName": "epfid2d1_104",
  "SequenceVariant": "SK_SS",
  "SeriesDescription": "mbep2d_bold_mb2_p3_AP_2iso",
  "SeriesNumber": 15,
  "ShimSetting": [18, 2052, 32, 1280, -95, -108, 282, -116],
  "SliceThickness": 2,
  "SliceTiming": [0, 0.23, 0.4575, 0.685, 0.9125, 0.1375, 0.365, 0.595, 0.8225, 0.0475, 0.275, 0.5025, 0.73, 0.96, 0.1825, 0.4125, 0.64, 0.8675, 0.0925, 0.32, 0.5475, 0.7775, 0, 0.23, 0.4575, 0.685, 0.9125, 0.1375, 0.365, 0.595, 0.8225, 0.0475, 0.275, 0.5025, 0.73, 0.96, 0.1825, 0.4125, 0.64, 0.8675, 0.0925, 0.32, 0.5475, 0.7775],
  "SoftwareVersions": "syngo_MR_B17",
  "SpacingBetweenSlices": 2,
  "StationName": "MASTER",
  "TaskName": "dsp",
  "TotalReadoutTime": 0.0230033,
  "TxRefAmp": 120,
  "dcmmeta_affine": [
    [-2.0, -4.000000067449534e-16, 7.426664444028518e-17, 105.4527816772461],
    [-4.000000067449534e-16, 1.9652255773544312, -0.37133321166038513, -104.59367370605469],
    [0.0, 0.37133321166038513, 1.9652255773544312, -53.975868225097656],
    [0.0, 0.0, 0.0, 1.0]
],
  "dcmmeta_reorient_transform": [
    [0.0, -1.0, 0.0, 103.0],
    [1.0, 0.0, 0.0, 0.0],
    [0.0, 0.0, 1.0, 0.0],
    [0.0, 0.0, 0.0, 1.0]
],
  "dcmmeta_shape": [104, 104, 44, 330],
  "dcmmeta_slice_dim": 2,
  "dcmmeta_version": 0.6,
  "global": {
    "const": {
      "AcquisitionMatrix": [104, 0, 0, 104],
      "AngioFlag": "N",
      "BitsAllocated": 16,
      "BitsStored": 12,
      "Columns": 728,
      "EchoNumbers": 1,
      "EchoTime": 20.0,
      "EchoTrainLength": 1,
      "FlipAngle": 30.0,
      "HighBit": 11,
      "ImageOrientationPatient": [1.0, 2e-16, 0.0, -2e-16, 0.9826127972607, -0.1856666115905],
      "ImagePositionPatient": [-729.45278453827, -710.97494464142, 100.12742092345],
      "ImageType": [
        "ORIGINAL",
        "PRIMARY",
        "M",
        "MB",
        "ND",
        "MOSAIC"
],
      "ImagedNucleus": "1H",
      "ImagingFrequency": 297.228807,
      "InPlanePhaseEncodingDirection": "COL",
      "MRAcquisitionType": "2D",
      "MagneticFieldStrength": 6.98,
      "Manufacturer": "SIEMENS",
      "ManufacturerModelName": "Investigational_Device_7T",
      "Modality": "MR",
      "NumberOfAverages": 1.0,
      "NumberOfPhaseEncodingSteps": 91,
      "PercentPhaseFieldOfView": 100.0,
      "PercentSampling": 100.0,
      "PerformedProcedureStepStartTime": "094408.468000",
      "PhotometricInterpretation": "MONOCHROME2",
      "PixelBandwidth": 1717.0,
      "PixelRepresentation": 0,
      "PixelSpacing": [2.0, 2.0],
      "ProtocolName": "mbep2d_bold_mb2_p3_AP 2iso",
      "RepetitionTime": 1000.0,
      "Rows": 728,
      "SAR": 0.0,
      "SamplesPerPixel": 1,
      "ScanOptions": [
        "PFP",
        "FS"
],
      "ScanningSequence": "EP",
      "SequenceName": "epfid2d1_104",
      "SequenceVariant": [
        "SK",
        "SS"
],
      "SeriesDescription": "mbep2d_bold_mb2_p3_AP 2iso",
      "SeriesNumber": 15,
      "SeriesTime": "100937.937000",
      "SliceLocation": -33.617823741243,
      "SliceThickness": 2.0,
      "SmallestImagePixelValue": 0,
      "SoftwareVersions": "syngo MR B17",
      "SpacingBetweenSlices": 1.9999999843164,
      "SpecificCharacterSet": "ISO_IR 100",
      "StudyID": "1",
      "StudyTime": "094408.390000",
      "TransmitCoilName": "CFMM_8Tx32Rx",
      "VariableFlipAngleFlag": "N",
      "WindowCenterWidthExplanation": "Algo1",
      "dBdt": 0.0},
    "slices": {}
  },
  "time": {
    "samples": {
      "AcquisitionNumber": [1, 2, 3, 4, 5, 6, 7, 8, 9, 10, 11, 12, 13, 14, 15, 16, 17, 18, 19, 20, 21, 22, 23, 24, 25, 26, 27, 28, 29, 30, 31, 32, 33, 34, 35, 36, 37, 38, 39, 40, 41, 42, 43, 44, 45, 46, 47, 48, 49, 50, 51, 52, 53, 54, 55, 56, 57, 58, 59, 60, 61, 62, 63, 64, 65, 66, 67, 68, 69, 70, 71, 72, 73, 74, 75, 76, 77, 78, 79, 80, 81, 82, 83, 84, 85, 86, 87, 88, 89, 90, 91, 92, 93, 94, 95, 96, 97, 98, 99, 100, 101, 102, 103, 104, 105, 106, 107, 108, 109, 110, 111, 112, 113, 114, 115, 116, 117, 118, 119, 120, 121, 122, 123, 124, 125, 126, 127, 128, 129, 130, 131, 132, 133, 134, 135, 136, 137, 138, 139, 140, 141, 142, 143, 144, 145, 146, 147, 148, 149, 150, 151, 152, 153, 154, 155, 156, 157, 158, 159, 160, 161, 162, 163, 164, 165, 166, 167, 168, 169, 170, 171, 172, 173, 174, 175, 176, 177, 178, 179, 180, 181, 182, 183, 184, 185, 186, 187, 188, 189, 190, 191, 192, 193, 194, 195, 196, 197, 198, 199, 200, 201, 202, 203, 204, 205, 206, 207, 208, 209, 210, 211, 212, 213, 214, 215, 216, 217, 218, 219, 220, 221, 222, 223, 224, 225, 226, 227, 228, 229, 230, 231, 232, 233, 234, 235, 236, 237, 238, 239, 240, 241, 242, 243, 244, 245, 246, 247, 248, 249, 250, 251, 252, 253, 254, 255, 256, 257, 258, 259, 260, 261, 262, 263, 264, 265, 266, 267, 268, 269, 270, 271, 272, 273, 274, 275, 276, 277, 278, 279, 280, 281, 282, 283, 284, 285, 286, 287, 288, 289, 290, 291, 292, 293, 294, 295, 296, 297, 298, 299, 300, 301, 302, 303, 304, 305, 306, 307, 308, 309, 310, 311, 312, 313, 314, 315, 316, 317, 318, 319, 320, 321, 322, 323, 324, 325, 326, 327, 328, 329, 330],
      "AcquisitionTime": ["100858.610000", "100859.615000", "100900.620000", "100901.622500", "100902.627500", "100903.630000", "100904.635000", "100905.640000", "100906.642500", "100907.647500", "100908.650000", "100909.655000", "100910.660000", "100911.662500", "100912.667500", "100913.670000", "100914.675000", "100915.680000", "100916.682500", "100917.687500", "100918.690000", "100919.695000", "100920.700000", "100921.702500", "100922.707500", "100923.712500", "100924.715000", "100925.720000", "100926.722500", "100927.727500", "100928.732500", "100929.735000", "100930.740000", "100931.742500", "100932.747500", "100933.752500", "100934.755000", "100935.760000", "100936.762500", "100937.767500", "100938.772500", "100939.775000", "100940.780000", "100941.782500", "100942.787500", "100943.792500", "100944.795000", "100945.800000", "100946.802500", "100947.807500", "100948.812500", "100949.815000", "100950.820000", "100951.822500", "100952.827500", "100953.832500", "100954.835000", "100955.840000", "100956.845000", "100957.847500", "100958.852500", "100959.855000", "101000.860000", "101001.865000", "101002.867500", "101003.872500", "101004.875000", "101005.880000", "101006.885000", "101007.887500", "101008.892500", "101009.895000", "101010.900000", "101011.905000", "101012.907500", "101013.912500", "101014.915000", "101015.920000", "101016.925000", "101017.927500", "101018.932500", "101019.935000", "101020.940000", "101021.945000", "101022.947500", "101023.952500", "101024.957500", "101025.960000", "101026.965000", "101027.967500", "101028.972500", "101029.977500", "101030.980000", "101031.985000", "101032.987500", "101033.992500", "101034.997500", "101036.000000", "101037.005000", "101038.007500", "101039.012500", "101040.017500", "101041.020000", "101042.025000", "101043.027500", "101044.032500", "101045.037500", "101046.040000", "101047.045000", "101048.047500", "101049.052500", "101050.057500", "101051.060000", "101052.065000", "101053.067500", "101054.072500", "101055.077500", "101056.080000", "101057.085000", "101058.090000", "101059.092500", "101100.097500", "101101.100000", "101102.105000", "101103.110000", "101104.112500", "101105.117500", "101106.120000", "101107.125000", "101108.130000", "101109.132500", "101110.137500", "101111.140000", "101112.145000", "101113.150000", "101114.152500", "101115.157500", "101116.160000", "101117.165000", "101118.170000", "101119.172500", "101120.177500", "101121.180000", "101122.185000", "101123.190000", "101124.192500", "101125.197500", "101126.202500", "101127.205000", "101128.210000", "101129.212500", "101130.217500", "101131.222500", "101132.225000", "101133.230000", "101134.232500", "101135.237500", "101136.242500", "101137.245000", "101138.250000", "101139.252500", "101140.257500", "101141.262500", "101142.265000", "101143.270000", "101144.272500", "101145.277500", "101146.282500", "101147.285000", "101148.290000", "101149.292500", "101150.297500", "101151.302500", "101152.305000", "101153.310000", "101154.312500", "101155.317500", "101156.322500", "101157.325000", "101158.330000", "101159.335000", "101200.337500", "101201.342500", "101202.345000", "101203.350000", "101204.355000", "101205.357500", "101206.362500", "101207.365000", "101208.370000", "101209.375000", "101210.377500", "101211.382500", "101212.385000", "101213.390000", "101214.395000", "101215.397500", "101216.402500", "101217.405000", "101218.410000", "101219.415000", "101220.417500", "101221.422500", "101222.425000", "101223.430000", "101224.435000", "101225.437500", "101226.442500", "101227.445000", "101228.450000", "101229.455000", "101230.457500", "101231.462500", "101232.467500", "101233.470000", "101234.475000", "101235.477500", "101236.482500", "101237.487500", "101238.490000", "101239.495000", "101240.497500", "101241.502500", "101242.507500", "101243.510000", "101244.515000", "101245.517500", "101246.522500", "101247.527500", "101248.530000", "101249.535000", "101250.537500", "101251.542500", "101252.547500", "101253.550000", "101254.555000", "101255.557500", "101256.562500", "101257.567500", "101258.570000", "101259.575000", "101300.580000", "101301.582500", "101302.587500", "101303.590000", "101304.595000", "101305.600000", "101306.602500", "101307.607500", "101308.610000", "101309.615000", "101310.620000", "101311.622500", "101312.627500", "101313.630000", "101314.635000", "101315.640000", "101316.642500", "101317.647500", "101318.650000", "101319.655000", "101320.660000", "101321.662500", "101322.667500", "101323.670000", "101324.675000", "101325.680000", "101326.682500", "101327.687500", "101328.690000", "101329.695000", "101330.700000", "101331.702500", "101332.707500", "101333.712500", "101334.715000", "101335.720000", "101336.722500", "101337.727500", "101338.732500", "101339.735000", "101340.740000", "101341.742500", "101342.747500", "101343.752500", "101344.755000", "101345.760000", "101346.762500", "101347.767500", "101348.772500", "101349.775000", "101350.780000", "101351.782500", "101352.787500", "101353.792500", "101354.795000", "101355.800000", "101356.802500", "101357.807500", "101358.812500", "101359.815000", "101400.820000", "101401.822500", "101402.827500", "101403.832500", "101404.835000", "101405.840000", "101406.845000", "101407.847500", "101408.852500", "101409.855000", "101410.860000", "101411.865000", "101412.867500", "101413.872500", "101414.875000", "101415.880000", "101416.885000", "101417.887500", "101418.892500", "101419.895000", "101420.900000", "101421.905000", "101422.907500", "101423.912500", "101424.915000", "101425.920000", "101426.925000", "101427.927500", "101428.932500"],
      "ContentTime": ["100937.937000", "100937.937000", "100937.953000", "100937.953000", "100937.953000", "100937.953000", "100937.953000", "100937.953000", "100937.968000", "100937.968000", "100937.968000", "100937.968000", "100937.968000", "100937.968000", "100937.968000", "100937.984000", "100937.984000", "100937.984000", "100937.984000", "100937.984000", "100937.984000", "100937.984000", "100938.000000", "100938.000000", "100938.000000", "100938.000000", "100938.000000", "100938.000000", "100938.015000", "100938.015000", "100938.015000", "100938.015000", "100938.015000", "100938.015000", "100938.015000", "100938.031000", "100938.031000", "100938.031000", "100957.906000", "100957.906000", "100957.906000", "100957.906000", "100957.906000", "100957.921000", "100957.921000", "100957.921000", "100957.921000", "100957.921000", "100957.937000", "100957.937000", "100957.937000", "100957.937000", "100957.937000", "100957.937000", "100957.937000", "100957.953000", "100957.953000", "100957.953000", "101017.906000", "101017.906000", "101017.906000", "101017.921000", "101017.921000", "101017.921000", "101017.921000", "101017.921000", "101017.921000", "101017.921000", "101017.937000", "101017.937000", "101017.937000", "101017.937000", "101017.937000", "101017.937000", "101017.937000", "101017.937000", "101017.953000", "101017.953000", "101037.906000", "101037.906000", "101037.921000", "101037.921000", "101037.921000", "101037.921000", "101037.921000", "101037.921000", "101037.937000", "101037.937000", "101037.937000", "101037.937000", "101037.937000", "101037.937000", "101037.953000", "101037.953000", "101037.953000", "101037.953000", "101037.953000", "101037.953000", "101057.906000", "101057.906000", "101057.906000", "101057.906000", "101057.906000", "101057.921000", "101057.921000", "101057.921000", "101057.921000", "101057.921000", "101057.937000", "101057.937000", "101057.937000", "101057.937000", "101057.937000", "101057.937000", "101057.937000", "101057.937000", "101057.953000", "101057.953000", "101117.906000", "101117.906000", "101117.906000", "101117.906000", "101117.906000", "101117.921000", "101117.921000", "101117.921000", "101117.921000", "101117.921000", "101117.921000", "101117.921000", "101117.937000", "101117.937000", "101117.937000", "101117.937000", "101117.937000", "101117.937000", "101117.953000", "101117.953000", "101137.906000", "101137.906000", "101137.906000", "101137.906000", "101137.906000", "101137.921000", "101137.921000", "101137.921000", "101137.921000", "101137.921000", "101137.921000", "101137.921000", "101137.937000", "101137.937000", "101137.937000", "101137.937000", "101137.937000", "101137.937000", "101137.937000", "101137.937000", "101157.906000", "101157.906000", "101157.906000", "101157.906000", "101157.906000", "101157.921000", "101157.921000", "101157.921000", "101157.921000", "101157.921000", "101157.921000", "101157.921000", "101157.921000", "101157.937000", "101157.937000", "101157.937000", "101157.937000", "101157.937000", "101157.937000", "101157.937000", "101217.906000", "101217.906000", "101217.921000", "101217.921000", "101217.921000", "101217.921000", "101217.921000", "101217.921000", "101217.921000", "101217.921000", "101217.937000", "101217.937000", "101217.937000", "101217.937000", "101217.937000", "101217.937000", "101217.937000", "101217.953000", "101217.953000", "101217.953000", "101237.906000", "101237.906000", "101237.906000", "101237.906000", "101237.906000", "101237.921000", "101237.921000", "101237.921000", "101237.921000", "101237.937000", "101237.937000", "101237.937000", "101237.937000", "101237.937000", "101237.937000", "101237.937000", "101237.953000", "101237.953000", "101237.953000", "101237.953000", "101257.906000", "101257.906000", "101257.906000", "101257.906000", "101257.906000", "101257.921000", "101257.921000", "101257.921000", "101257.921000", "101257.921000", "101257.921000", "101257.921000", "101257.921000", "101257.937000", "101257.937000", "101257.937000", "101257.937000", "101257.937000", "101257.937000", "101257.953000", "101317.906000", "101317.906000", "101317.906000", "101317.906000", "101317.921000", "101317.921000", "101317.921000", "101317.921000", "101317.921000", "101317.937000", "101317.937000", "101317.937000", "101317.937000", "101317.937000", "101317.937000", "101317.937000", "101317.953000", "101317.953000", "101317.953000", "101317.953000", "101337.906000", "101337.906000", "101337.906000", "101337.906000", "101337.906000", "101337.921000", "101337.921000", "101337.921000", "101337.921000", "101337.921000", "101337.921000", "101337.937000", "101337.937000", "101337.937000", "101337.937000", "101337.937000", "101337.937000", "101337.937000", "101337.953000", "101337.953000", "101357.906000", "101357.906000", "101357.906000", "101357.906000", "101357.906000", "101357.921000", "101357.921000", "101357.921000", "101357.921000", "101357.921000", "101357.921000", "101357.921000", "101357.921000", "101357.937000", "101357.937000", "101357.937000", "101357.937000", "101357.937000", "101357.937000", "101357.937000", "101417.906000", "101417.906000", "101417.906000", "101417.906000", "101417.906000", "101417.921000", "101417.921000", "101417.921000", "101417.921000", "101417.921000", "101417.921000", "101417.921000", "101417.921000", "101417.937000", "101417.937000", "101417.937000", "101417.937000", "101417.937000", "101417.953000", "101417.953000", "101434.562000", "101434.562000", "101434.562000", "101434.562000", "101434.562000", "101434.578000", "101434.578000", "101434.578000", "101434.578000", "101434.578000", "101434.593000", "101434.593000"],
      "InstanceCreationTime": ["100937.937000", "100937.937000", "100937.953000", "100937.953000", "100937.953000", "100937.953000", "100937.953000", "100937.953000", "100937.968000", "100937.968000", "100937.968000", "100937.968000", "100937.968000", "100937.968000", "100937.968000", "100937.984000", "100937.984000", "100937.984000", "100937.984000", "100937.984000", "100937.984000", "100937.984000", "100938.000000", "100938.000000", "100938.000000", "100938.000000", "100938.000000", "100938.000000", "100938.015000", "100938.015000", "100938.015000", "100938.015000", "100938.015000", "100938.015000", "100938.015000", "100938.031000", "100938.031000", "100938.031000", "100957.906000", "100957.906000", "100957.906000", "100957.906000", "100957.906000", "100957.921000", "100957.921000", "100957.921000", "100957.921000", "100957.921000", "100957.937000", "100957.937000", "100957.937000", "100957.937000", "100957.937000", "100957.937000", "100957.937000", "100957.953000", "100957.953000", "100957.953000", "101017.906000", "101017.906000", "101017.906000", "101017.921000", "101017.921000", "101017.921000", "101017.921000", "101017.921000", "101017.921000", "101017.921000", "101017.937000", "101017.937000", "101017.937000", "101017.937000", "101017.937000", "101017.937000", "101017.937000", "101017.937000", "101017.953000", "101017.953000", "101037.906000", "101037.906000", "101037.921000", "101037.921000", "101037.921000", "101037.921000", "101037.921000", "101037.921000", "101037.937000", "101037.937000", "101037.937000", "101037.937000", "101037.937000", "101037.937000", "101037.953000", "101037.953000", "101037.953000", "101037.953000", "101037.953000", "101037.953000", "101057.906000", "101057.906000", "101057.906000", "101057.906000", "101057.906000", "101057.921000", "101057.921000", "101057.921000", "101057.921000", "101057.921000", "101057.937000", "101057.937000", "101057.937000", "101057.937000", "101057.937000", "101057.937000", "101057.937000", "101057.937000", "101057.953000", "101057.953000", "101117.906000", "101117.906000", "101117.906000", "101117.906000", "101117.906000", "101117.921000", "101117.921000", "101117.921000", "101117.921000", "101117.921000", "101117.921000", "101117.921000", "101117.937000", "101117.937000", "101117.937000", "101117.937000", "101117.937000", "101117.937000", "101117.953000", "101117.953000", "101137.906000", "101137.906000", "101137.906000", "101137.906000", "101137.906000", "101137.921000", "101137.921000", "101137.921000", "101137.921000", "101137.921000", "101137.921000", "101137.921000", "101137.937000", "101137.937000", "101137.937000", "101137.937000", "101137.937000", "101137.937000", "101137.937000", "101137.937000", "101157.906000", "101157.906000", "101157.906000", "101157.906000", "101157.906000", "101157.921000", "101157.921000", "101157.921000", "101157.921000", "101157.921000", "101157.921000", "101157.921000", "101157.921000", "101157.937000", "101157.937000", "101157.937000", "101157.937000", "101157.937000", "101157.937000", "101157.937000", "101217.906000", "101217.906000", "101217.921000", "101217.921000", "101217.921000", "101217.921000", "101217.921000", "101217.921000", "101217.921000", "101217.921000", "101217.937000", "101217.937000", "101217.937000", "101217.937000", "101217.937000", "101217.937000", "101217.937000", "101217.953000", "101217.953000", "101217.953000", "101237.906000", "101237.906000", "101237.906000", "101237.906000", "101237.906000", "101237.921000", "101237.921000", "101237.921000", "101237.921000", "101237.937000", "101237.937000", "101237.937000", "101237.937000", "101237.937000", "101237.937000", "101237.937000", "101237.953000", "101237.953000", "101237.953000", "101237.953000", "101257.906000", "101257.906000", "101257.906000", "101257.906000", "101257.906000", "101257.921000", "101257.921000", "101257.921000", "101257.921000", "101257.921000", "101257.921000", "101257.921000", "101257.921000", "101257.937000", "101257.937000", "101257.937000", "101257.937000", "101257.937000", "101257.937000", "101257.953000", "101317.906000", "101317.906000", "101317.906000", "101317.906000", "101317.921000", "101317.921000", "101317.921000", "101317.921000", "101317.921000", "101317.937000", "101317.937000", "101317.937000", "101317.937000", "101317.937000", "101317.937000", "101317.937000", "101317.953000", "101317.953000", "101317.953000", "101317.953000", "101337.906000", "101337.906000", "101337.906000", "101337.906000", "101337.906000", "101337.921000", "101337.921000", "101337.921000", "101337.921000", "101337.921000", "101337.921000", "101337.937000", "101337.937000", "101337.937000", "101337.937000", "101337.937000", "101337.937000", "101337.937000", "101337.953000", "101337.953000", "101357.906000", "101357.906000", "101357.906000", "101357.906000", "101357.906000", "101357.921000", "101357.921000", "101357.921000", "101357.921000", "101357.921000", "101357.921000", "101357.921000", "101357.921000", "101357.937000", "101357.937000", "101357.937000", "101357.937000", "101357.937000", "101357.937000", "101357.937000", "101417.906000", "101417.906000", "101417.906000", "101417.906000", "101417.906000", "101417.921000", "101417.921000", "101417.921000", "101417.921000", "101417.921000", "101417.921000", "101417.921000", "101417.921000", "101417.937000", "101417.937000", "101417.937000", "101417.937000", "101417.937000", "101417.953000", "101417.953000", "101434.562000", "101434.562000", "101434.562000", "101434.562000", "101434.562000", "101434.578000", "101434.578000", "101434.578000", "101434.578000", "101434.578000", "101434.593000", "101434.593000"],
      "InstanceNumber": [1, 2, 3, 4, 5, 6, 7, 8, 9, 10, 11, 12, 13, 14, 15, 16, 17, 18, 19, 20, 21, 22, 23, 24, 25, 26, 27, 28, 29, 30, 31, 32, 33, 34, 35, 36, 37, 38, 39, 40, 41, 42, 43, 44, 45, 46, 47, 48, 49, 50, 51, 52, 53, 54, 55, 56, 57, 58, 59, 60, 61, 62, 63, 64, 65, 66, 67, 68, 69, 70, 71, 72, 73, 74, 75, 76, 77, 78, 79, 80, 81, 82, 83, 84, 85, 86, 87, 88, 89, 90, 91, 92, 93, 94, 95, 96, 97, 98, 99, 100, 101, 102, 103, 104, 105, 106, 107, 108, 109, 110, 111, 112, 113, 114, 115, 116, 117, 118, 119, 120, 121, 122, 123, 124, 125, 126, 127, 128, 129, 130, 131, 132, 133, 134, 135, 136, 137, 138, 139, 140, 141, 142, 143, 144, 145, 146, 147, 148, 149, 150, 151, 152, 153, 154, 155, 156, 157, 158, 159, 160, 161, 162, 163, 164, 165, 166, 167, 168, 169, 170, 171, 172, 173, 174, 175, 176, 177, 178, 179, 180, 181, 182, 183, 184, 185, 186, 187, 188, 189, 190, 191, 192, 193, 194, 195, 196, 197, 198, 199, 200, 201, 202, 203, 204, 205, 206, 207, 208, 209, 210, 211, 212, 213, 214, 215, 216, 217, 218, 219, 220, 221, 222, 223, 224, 225, 226, 227, 228, 229, 230, 231, 232, 233, 234, 235, 236, 237, 238, 239, 240, 241, 242, 243, 244, 245, 246, 247, 248, 249, 250, 251, 252, 253, 254, 255, 256, 257, 258, 259, 260, 261, 262, 263, 264, 265, 266, 267, 268, 269, 270, 271, 272, 273, 274, 275, 276, 277, 278, 279, 280, 281, 282, 283, 284, 285, 286, 287, 288, 289, 290, 291, 292, 293, 294, 295, 296, 297, 298, 299, 300, 301, 302, 303, 304, 305, 306, 307, 308, 309, 310, 311, 312, 313, 314, 315, 316, 317, 318, 319, 320, 321, 322, 323, 324, 325, 326, 327, 328, 329, 330],
      "LargestImagePixelValue": [2650, 2494, 2463, 2500, 2467, 2435, 2474, 2483, 2437, 2440, 2404, 2490, 2477, 2528, 2436, 2428, 2497, 2461, 2518, 2455, 2454, 2472, 2382, 2480, 2495, 2450, 2434, 2425, 2549, 2464, 2425, 2601, 2545, 2452, 2545, 2574, 2474, 2512, 2581, 2613, 2527, 2561, 2634, 2621, 2544, 2529, 2571, 2480, 2591, 2503, 2622, 2570, 2660, 2483, 2561, 2636, 2485, 2470, 2556, 2473, 2498, 2495, 2563, 2550, 2505, 2606, 2496, 2549, 2490, 2622, 2594, 2516, 2520, 2500, 2512, 2443, 2513, 2458, 2548, 2552, 2534, 2480, 2487, 2503, 2506, 2510, 2466, 2516, 2547, 2532, 2526, 2522, 2518, 2527, 2596, 2503, 2560, 2459, 2513, 2525, 2456, 2453, 2422, 2555, 2557, 2470, 2472, 2573, 2536, 2583, 2583, 2456, 2460, 2616, 2498, 2472, 2531, 2424, 2478, 2506, 2517, 2421, 2439, 2487, 2468, 2414, 2453, 2449, 2637, 2526, 2473, 2580, 2599, 2480, 2498, 2498, 2530, 2513, 2549, 2528, 2496, 2487, 2503, 2432, 2473, 2577, 2606, 2504, 2511, 2467, 2472, 2552, 2563, 2452, 2590, 2501, 2440, 2417, 2606, 2589, 2609, 2489, 2582, 2626, 2589, 2642, 2565, 2582, 2671, 2614, 2636, 2543, 2611, 2626, 2599, 2554, 2514, 2531, 2529, 2656, 2621, 2556, 2583, 2594, 2618, 2581, 2577, 2491, 2531, 2529, 2577, 2475, 2607, 2619, 2533, 2667, 2577, 2528, 2568, 2536, 2555, 2650, 2579, 2605, 2567, 2571, 2692, 2674, 2616, 2606, 2635, 2603, 2594, 2656, 2707, 2559, 2601, 2635, 2654, 2657, 2689, 2622, 2607, 2620, 2557, 2683, 2538, 2635, 2618, 2596, 2496, 2610, 2785, 2661, 2690, 2615, 2690, 2640, 2691, 2640, 2627, 2657, 2534, 2574, 2654, 2601, 2517, 2591, 2697, 2633, 2586, 2604, 2568, 2622, 2627, 2602, 2616, 2596, 2577, 2530, 2528, 2534, 2602, 2531, 2541, 2586, 2603, 2541, 2525, 2613, 2580, 2565, 2559, 2546, 2565, 2567, 2534, 2565, 2600, 2467, 2557, 2563, 2525, 2559, 2548, 2590, 2506, 2459, 2519, 2487, 2503, 2557, 2550, 2511, 2593, 2524, 2611, 2545, 2609, 2533, 2592, 2621, 2582, 2549, 2680, 2592, 2544, 2588, 2598, 2530, 2553, 2593, 2533, 2572, 2533, 2571, 2612, 2552, 2626, 2546, 2604, 2561, 2554, 2552, 2585, 2558, 2628, 2721, 2654, 2649],
      "WindowCenter": [437.0, 434.0, 432.0, 430.0, 429.0, 427.0, 427.0, 428.0, 428.0, 428.0, 428.0, 428.0, 430.0, 431.0, 431.0, 432.0, 433.0, 433.0, 434.0, 433.0, 434.0, 434.0, 433.0, 435.0, 435.0, 434.0, 435.0, 435.0, 438.0, 437.0, 437.0, 439.0, 440.0, 440.0, 440.0, 439.0, 439.0, 440.0, 441.0, 441.0, 440.0, 441.0, 442.0, 442.0, 442.0, 441.0, 440.0, 439.0, 440.0, 439.0, 440.0, 440.0, 441.0, 438.0, 437.0, 438.0, 436.0, 436.0, 437.0, 436.0, 435.0, 435.0, 434.0, 435.0, 434.0, 436.0, 436.0, 437.0, 437.0, 438.0, 437.0, 435.0, 435.0, 436.0, 436.0, 436.0, 436.0, 435.0, 435.0, 436.0, 436.0, 435.0, 435.0, 435.0, 435.0, 437.0, 436.0, 436.0, 437.0, 437.0, 435.0, 436.0, 436.0, 436.0, 437.0, 436.0, 436.0, 437.0, 437.0, 437.0, 436.0, 435.0, 435.0, 436.0, 436.0, 435.0, 435.0, 437.0, 437.0, 436.0, 436.0, 435.0, 434.0, 435.0, 434.0, 434.0, 436.0, 435.0, 436.0, 436.0, 436.0, 436.0, 436.0, 435.0, 436.0, 435.0, 435.0, 435.0, 438.0, 439.0, 439.0, 440.0, 438.0, 436.0, 435.0, 434.0, 434.0, 435.0, 436.0, 436.0, 436.0, 436.0, 436.0, 436.0, 437.0, 439.0, 440.0, 438.0, 438.0, 436.0, 436.0, 437.0, 436.0, 435.0, 437.0, 436.0, 435.0, 436.0, 439.0, 440.0, 440.0, 438.0, 437.0, 437.0, 436.0, 436.0, 434.0, 436.0, 438.0, 438.0, 438.0, 437.0, 437.0, 438.0, 437.0, 438.0, 437.0, 438.0, 438.0, 439.0, 437.0, 435.0, 434.0, 434.0, 434.0, 433.0, 432.0, 431.0, 430.0, 429.0, 430.0, 429.0, 430.0, 431.0, 432.0, 433.0, 433.0, 433.0, 434.0, 434.0, 437.0, 440.0, 441.0, 441.0, 442.0, 441.0, 441.0, 441.0, 441.0, 441.0, 441.0, 441.0, 441.0, 442.0, 444.0, 443.0, 444.0, 444.0, 443.0, 442.0, 442.0, 440.0, 440.0, 440.0, 440.0, 442.0, 441.0, 442.0, 442.0, 441.0, 439.0, 439.0, 440.0, 441.0, 441.0, 439.0, 439.0, 436.0, 435.0, 433.0, 432.0, 431.0, 429.0, 429.0, 429.0, 428.0, 427.0, 429.0, 433.0, 433.0, 433.0, 434.0, 434.0, 435.0, 434.0, 435.0, 436.0, 437.0, 438.0, 439.0, 439.0, 439.0, 438.0, 439.0, 439.0, 439.0, 441.0, 442.0, 444.0, 445.0, 445.0, 444.0, 445.0, 445.0, 445.0, 445.0, 445.0, 444.0, 444.0, 443.0, 444.0, 445.0, 445.0, 445.0, 444.0, 444.0, 442.0, 442.0, 443.0, 442.0, 441.0, 442.0, 440.0, 440.0, 440.0, 440.0, 442.0, 441.0, 440.0, 438.0, 439.0, 438.0, 437.0, 437.0, 438.0, 438.0, 438.0, 439.0, 440.0, 440.0, 440.0, 440.0, 439.0, 439.0, 438.0, 438.0, 439.0, 439.0, 439.0, 439.0, 440.0, 439.0, 439.0, 439.0, 439.0, 438.0, 439.0, 440.0, 440.0, 440.0],
