{
  "AcquisitionMatrixPE": 104,
  "AcquisitionNumber": 1,
  "AcquisitionTime": "10:44:59.417500",
  "BandwidthPerPixelPhaseEncode": 43.054,
  "BaseResolution": 104,
  "CoilString": "C:E1_2",
  "ConversionSoftware": "dcm2niix",
  "ConversionSoftwareVersion": "v1.0.20191031",
  "DerivedVendorReportedEchoSpacing": 0.000669999,
  "DeviceSerialNumber": "18932",
  "DwellTime": 2.8e-06,
  "EchoTime": 0.02,
  "EffectiveEchoSpacing": 0.000223333,
  "FlipAngle": 30,
  "ImageComments": "Unaliased_MB2_PE2",
  "ImageOrientationPatientDICOM": [1, 2e-16, 0, -2e-16, 0.982613, -0.185667],
  "ImageType": [
    "ORIGINAL",
    "PRIMARY",
    "M",
    "MB",
    "ND",
    "MOSAIC"
],
  "ImagingFrequency": 297.229,
  "InPlanePhaseEncodingDirectionDICOM": "COL",
  "InstitutionAddress": "Richmond_Street_North_1151_London_409EF2_Ontario_CA_N6A_5B7",
  "InstitutionName": "Robarts_Reserch_Institute",
  "InstitutionalDepartmentName": "Department",
  "MRAcquisitionType": "2D",
  "MagneticFieldStrength": 6.98,
  "Manufacturer": "Siemens",
  "ManufacturersModelName": "Investigational_Device_7T",
  "Modality": "MR",
  "MultibandAccelerationFactor": 2,
  "ParallelReductionFactorInPlane": 3,
  "PartialFourier": 0.875,
  "PatientPosition": "HFS",
  "PercentPhaseFOV": 100,
  "PhaseEncodingDirection": "j-",
  "PhaseEncodingSteps": 91,
  "PhaseResolution": 1,
  "PixelBandwidth": 1717,
  "ProcedureStepDescription": "Diedrichsen_SeqRep4",
  "ProtocolName": "mbep2d_bold_mb2_p3_AP_2iso",
  "PulseSequenceDetails": "%CustomerSeq%_cmrr_mbep2d_bold",
  "ReceiveCoilName": "CFMM_8Tx32Rx",
  "ReconMatrixPE": 104,
  "RefLinesPE": 36,
  "RepetitionTime": 1,
  "ScanOptions": "PFP_FS",
  "ScanningSequence": "EP",
  "SequenceName": "epfid2d1_104",
  "SequenceVariant": "SK_SS",
  "SeriesDescription": "mbep2d_bold_mb2_p3_AP_2iso",
  "SeriesNumber": 28,
  "ShimSetting": [18, 2052, 32, 1280, -95, -108, 282, -116],
  "SliceThickness": 2,
  "SliceTiming": [0, 0.23, 0.4575, 0.685, 0.9125, 0.1375, 0.365, 0.595, 0.8225, 0.0475, 0.275, 0.5025, 0.73, 0.96, 0.1825, 0.4125, 0.64, 0.8675, 0.0925, 0.32, 0.5475, 0.7775, 0, 0.23, 0.4575, 0.685, 0.9125, 0.1375, 0.365, 0.595, 0.8225, 0.0475, 0.275, 0.5025, 0.73, 0.96, 0.1825, 0.4125, 0.64, 0.8675, 0.0925, 0.32, 0.5475, 0.7775],
  "SoftwareVersions": "syngo_MR_B17",
  "SpacingBetweenSlices": 2,
  "StationName": "MASTER",
  "TaskName": "dsp",
  "TotalReadoutTime": 0.0230033,
  "TxRefAmp": 120,
  "dcmmeta_affine": [
    [-2.0, -4.000000067449534e-16, 7.426664444028518e-17, 105.4527816772461],
    [-4.000000067449534e-16, 1.9652255773544312, -0.37133321166038513, -104.59367370605469],
    [0.0, 0.37133321166038513, 1.9652255773544312, -53.975868225097656],
    [0.0, 0.0, 0.0, 1.0]
],
  "dcmmeta_reorient_transform": [
    [0.0, -1.0, 0.0, 103.0],
    [1.0, 0.0, 0.0, 0.0],
    [0.0, 0.0, 1.0, 0.0],
    [0.0, 0.0, 0.0, 1.0]
],
  "dcmmeta_shape": [104, 104, 44, 330],
  "dcmmeta_slice_dim": 2,
  "dcmmeta_version": 0.6,
  "global": {
    "const": {
      "AcquisitionMatrix": [104, 0, 0, 104],
      "AngioFlag": "N",
      "BitsAllocated": 16,
      "BitsStored": 12,
      "Columns": 728,
      "EchoNumbers": 1,
      "EchoTime": 20.0,
      "EchoTrainLength": 1,
      "FlipAngle": 30.0,
      "HighBit": 11,
      "ImageOrientationPatient": [1.0, 2e-16, 0.0, -2e-16, 0.9826127972607, -0.1856666115905],
      "ImagePositionPatient": [-729.45278453827, -710.97494464142, 100.12742092345],
      "ImageType": [
        "ORIGINAL",
        "PRIMARY",
        "M",
        "MB",
        "ND",
        "MOSAIC"
],
      "ImagedNucleus": "1H",
      "ImagingFrequency": 297.228841,
      "InPlanePhaseEncodingDirection": "COL",
      "MRAcquisitionType": "2D",
      "MagneticFieldStrength": 6.98,
      "Manufacturer": "SIEMENS",
      "ManufacturerModelName": "Investigational_Device_7T",
      "Modality": "MR",
      "NumberOfAverages": 1.0,
      "NumberOfPhaseEncodingSteps": 91,
      "PercentPhaseFieldOfView": 100.0,
      "PercentSampling": 100.0,
      "PerformedProcedureStepStartTime": "094408.468000",
      "PhotometricInterpretation": "MONOCHROME2",
      "PixelBandwidth": 1717.0,
      "PixelRepresentation": 0,
      "PixelSpacing": [2.0, 2.0],
      "ProtocolName": "mbep2d_bold_mb2_p3_AP 2iso",
      "RepetitionTime": 1000.0,
      "Rows": 728,
      "SAR": 0.0,
      "SamplesPerPixel": 1,
      "ScanOptions": [
        "PFP",
        "FS"
],
      "ScanningSequence": "EP",
      "SequenceName": "epfid2d1_104",
      "SequenceVariant": [
        "SK",
        "SS"
],
      "SeriesDescription": "mbep2d_bold_mb2_p3_AP 2iso",
      "SeriesNumber": 28,
      "SeriesTime": "104525.312000",
      "SliceLocation": -33.617823741243,
      "SliceThickness": 2.0,
      "SmallestImagePixelValue": 0,
      "SoftwareVersions": "syngo MR B17",
      "SpacingBetweenSlices": 1.9999999843164,
      "SpecificCharacterSet": "ISO_IR 100",
      "StudyID": "1",
      "StudyTime": "094408.390000",
      "TransmitCoilName": "CFMM_8Tx32Rx",
      "VariableFlipAngleFlag": "N",
      "WindowCenterWidthExplanation": "Algo1",
      "dBdt": 0.0},
    "slices": {}
  },
  "time": {
    "samples": {
      "AcquisitionNumber": [1, 2, 3, 4, 5, 6, 7, 8, 9, 10, 11, 12, 13, 14, 15, 16, 17, 18, 19, 20, 21, 22, 23, 24, 25, 26, 27, 28, 29, 30, 31, 32, 33, 34, 35, 36, 37, 38, 39, 40, 41, 42, 43, 44, 45, 46, 47, 48, 49, 50, 51, 52, 53, 54, 55, 56, 57, 58, 59, 60, 61, 62, 63, 64, 65, 66, 67, 68, 69, 70, 71, 72, 73, 74, 75, 76, 77, 78, 79, 80, 81, 82, 83, 84, 85, 86, 87, 88, 89, 90, 91, 92, 93, 94, 95, 96, 97, 98, 99, 100, 101, 102, 103, 104, 105, 106, 107, 108, 109, 110, 111, 112, 113, 114, 115, 116, 117, 118, 119, 120, 121, 122, 123, 124, 125, 126, 127, 128, 129, 130, 131, 132, 133, 134, 135, 136, 137, 138, 139, 140, 141, 142, 143, 144, 145, 146, 147, 148, 149, 150, 151, 152, 153, 154, 155, 156, 157, 158, 159, 160, 161, 162, 163, 164, 165, 166, 167, 168, 169, 170, 171, 172, 173, 174, 175, 176, 177, 178, 179, 180, 181, 182, 183, 184, 185, 186, 187, 188, 189, 190, 191, 192, 193, 194, 195, 196, 197, 198, 199, 200, 201, 202, 203, 204, 205, 206, 207, 208, 209, 210, 211, 212, 213, 214, 215, 216, 217, 218, 219, 220, 221, 222, 223, 224, 225, 226, 227, 228, 229, 230, 231, 232, 233, 234, 235, 236, 237, 238, 239, 240, 241, 242, 243, 244, 245, 246, 247, 248, 249, 250, 251, 252, 253, 254, 255, 256, 257, 258, 259, 260, 261, 262, 263, 264, 265, 266, 267, 268, 269, 270, 271, 272, 273, 274, 275, 276, 277, 278, 279, 280, 281, 282, 283, 284, 285, 286, 287, 288, 289, 290, 291, 292, 293, 294, 295, 296, 297, 298, 299, 300, 301, 302, 303, 304, 305, 306, 307, 308, 309, 310, 311, 312, 313, 314, 315, 316, 317, 318, 319, 320, 321, 322, 323, 324, 325, 326, 327, 328, 329, 330],
      "AcquisitionTime": ["104459.417500", "104500.422500", "104501.427500", "104502.430000", "104503.435000", "104504.437500", "104505.442500", "104506.447500", "104507.450000", "104508.455000", "104509.457500", "104510.462500", "104511.467500", "104512.470000", "104513.475000", "104514.480000", "104515.482500", "104516.487500", "104517.490000", "104518.495000", "104519.500000", "104520.502500", "104521.507500", "104522.510000", "104523.515000", "104524.520000", "104525.522500", "104526.527500", "104527.530000", "104528.535000", "104529.540000", "104530.542500", "104531.547500", "104532.550000", "104533.555000", "104534.560000", "104535.562500", "104536.567500", "104537.570000", "104538.575000", "104539.580000", "104540.582500", "104541.587500", "104542.590000", "104543.595000", "104544.600000", "104545.602500", "104546.607500", "104547.612500", "104548.615000", "104549.620000", "104550.622500", "104551.627500", "104552.632500", "104553.635000", "104554.640000", "104555.642500", "104556.647500", "104557.652500", "104558.655000", "104559.660000", "104600.662500", "104601.667500", "104602.672500", "104603.675000", "104604.680000", "104605.682500", "104606.687500", "104607.692500", "104608.695000", "104609.700000", "104610.702500", "104611.707500", "104612.712500", "104613.715000", "104614.720000", "104615.725000", "104616.727500", "104617.732500", "104618.735000", "104619.740000", "104620.745000", "104621.747500", "104622.752500", "104623.755000", "104624.760000", "104625.765000", "104626.767500", "104627.772500", "104628.775000", "104629.780000", "104630.785000", "104631.787500", "104632.792500", "104633.795000", "104634.800000", "104635.805000", "104636.807500", "104637.812500", "104638.815000", "104639.820000", "104640.825000", "104641.827500", "104642.832500", "104643.835000", "104644.840000", "104645.845000", "104646.847500", "104647.852500", "104648.857500", "104649.860000", "104650.865000", "104651.867500", "104652.872500", "104653.877500", "104654.880000", "104655.885000", "104656.887500", "104657.892500", "104658.897500", "104659.900000", "104700.905000", "104701.907500", "104702.912500", "104703.917500", "104704.920000", "104705.925000", "104706.927500", "104707.932500", "104708.937500", "104709.940000", "104710.945000", "104711.947500", "104712.952500", "104713.957500", "104714.960000", "104715.965000", "104716.967500", "104717.972500", "104718.977500", "104719.980000", "104720.985000", "104721.990000", "104722.992500", "104723.997500", "104725.000000", "104726.005000", "104727.010000", "104728.012500", "104729.017500", "104730.020000", "104731.025000", "104732.030000", "104733.032500", "104734.037500", "104735.040000", "104736.045000", "104737.050000", "104738.052500", "104739.057500", "104740.060000", "104741.065000", "104742.070000", "104743.072500", "104744.077500", "104745.080000", "104746.085000", "104747.090000", "104748.092500", "104749.097500", "104750.102500", "104751.105000", "104752.110000", "104753.112500", "104754.117500", "104755.122500", "104756.125000", "104757.130000", "104758.132500", "104759.137500", "104800.142500", "104801.145000", "104802.150000", "104803.152500", "104804.157500", "104805.162500", "104806.165000", "104807.170000", "104808.172500", "104809.177500", "104810.182500", "104811.185000", "104812.190000", "104813.192500", "104814.197500", "104815.202500", "104816.205000", "104817.210000", "104818.212500", "104819.217500", "104820.222500", "104821.225000", "104822.230000", "104823.235000", "104824.237500", "104825.242500", "104826.245000", "104827.250000", "104828.255000", "104829.257500", "104830.262500", "104831.265000", "104832.270000", "104833.275000", "104834.277500", "104835.282500", "104836.285000", "104837.290000", "104838.295000", "104839.297500", "104840.302500", "104841.305000", "104842.310000", "104843.315000", "104844.317500", "104845.322500", "104846.325000", "104847.330000", "104848.335000", "104849.337500", "104850.342500", "104851.347500", "104852.350000", "104853.355000", "104854.357500", "104855.362500", "104856.367500", "104857.370000", "104858.375000", "104859.377500", "104900.382500", "104901.387500", "104902.390000", "104903.395000", "104904.397500", "104905.402500", "104906.407500", "104907.410000", "104908.415000", "104909.417500", "104910.422500", "104911.427500", "104912.430000", "104913.435000", "104914.437500", "104915.442500", "104916.447500", "104917.450000", "104918.455000", "104919.457500", "104920.462500", "104921.467500", "104922.470000", "104923.475000", "104924.480000", "104925.482500", "104926.487500", "104927.490000", "104928.495000", "104929.500000", "104930.502500", "104931.507500", "104932.510000", "104933.515000", "104934.520000", "104935.522500", "104936.527500", "104937.530000", "104938.535000", "104939.540000", "104940.542500", "104941.547500", "104942.550000", "104943.555000", "104944.560000", "104945.562500", "104946.567500", "104947.570000", "104948.575000", "104949.580000", "104950.582500", "104951.587500", "104952.590000", "104953.595000", "104954.600000", "104955.602500", "104956.607500", "104957.612500", "104958.615000", "104959.620000", "105000.622500", "105001.627500", "105002.632500", "105003.635000", "105004.640000", "105005.642500", "105006.647500", "105007.652500", "105008.655000", "105009.660000", "105010.662500", "105011.667500", "105012.672500", "105013.675000", "105014.680000", "105015.682500", "105016.687500", "105017.692500", "105018.695000", "105019.700000", "105020.702500", "105021.707500", "105022.712500", "105023.715000", "105024.720000", "105025.725000", "105026.727500", "105027.732500", "105028.735000", "105029.740000"],
      "ContentTime": ["104525.312000", "104525.312000", "104525.328000", "104525.328000", "104525.328000", "104525.328000", "104525.328000", "104525.328000", "104525.328000", "104525.328000", "104525.343000", "104525.343000", "104525.343000", "104525.343000", "104525.343000", "104525.359000", "104525.359000", "104525.359000", "104525.359000", "104525.359000", "104525.359000", "104525.375000", "104525.375000", "104525.375000", "104545.281000", "104545.281000", "104545.281000", "104545.281000", "104545.281000", "104545.296000", "104545.296000", "104545.296000", "104545.296000", "104545.296000", "104545.296000", "104545.296000", "104545.296000", "104545.312000", "104545.312000", "104545.312000", "104545.312000", "104545.312000", "104545.312000", "104545.312000", "104605.281000", "104605.281000", "104605.281000", "104605.281000", "104605.296000", "104605.296000", "104605.296000", "104605.296000", "104605.296000", "104605.296000", "104605.312000", "104605.312000", "104605.312000", "104605.312000", "104605.312000", "104605.312000", "104605.312000", "104605.328000", "104605.328000", "104605.328000", "104625.281000", "104625.281000", "104625.281000", "104625.296000", "104625.296000", "104625.296000", "104625.296000", "104625.296000", "104625.312000", "104625.312000", "104625.312000", "104625.312000", "104625.312000", "104625.312000", "104625.312000", "104625.312000", "104625.328000", "104625.328000", "104625.328000", "104625.328000", "104645.281000", "104645.281000", "104645.281000", "104645.281000", "104645.281000", "104645.296000", "104645.296000", "104645.296000", "104645.296000", "104645.296000", "104645.296000", "104645.296000", "104645.296000", "104645.312000", "104645.312000", "104645.312000", "104645.312000", "104645.312000", "104645.328000", "104645.328000", "104705.281000", "104705.281000", "104705.281000", "104705.281000", "104705.281000", "104705.296000", "104705.296000", "104705.296000", "104705.296000", "104705.296000", "104705.296000", "104705.296000", "104705.296000", "104705.312000", "104705.312000", "104705.312000", "104705.312000", "104705.312000", "104705.312000", "104705.312000", "104725.281000", "104725.281000", "104725.281000", "104725.281000", "104725.281000", "104725.296000", "104725.296000", "104725.296000", "104725.296000", "104725.296000", "104725.296000", "104725.296000", "104725.296000", "104725.312000", "104725.312000", "104725.312000", "104725.312000", "104725.312000", "104725.312000", "104725.312000", "104745.281000", "104745.281000", "104745.281000", "104745.281000", "104745.281000", "104745.296000", "104745.296000", "104745.296000", "104745.296000", "104745.296000", "104745.296000", "104745.296000", "104745.296000", "104745.312000", "104745.312000", "104745.312000", "104745.312000", "104745.312000", "104745.312000", "104745.312000", "104805.281000", "104805.281000", "104805.296000", "104805.296000", "104805.296000", "104805.296000", "104805.296000", "104805.296000", "104805.312000", "104805.312000", "104805.312000", "104805.312000", "104805.312000", "104805.312000", "104805.328000", "104805.328000", "104805.328000", "104805.328000", "104805.328000", "104805.328000", "104825.281000", "104825.281000", "104825.296000", "104825.296000", "104825.296000", "104825.296000", "104825.296000", "104825.296000", "104825.296000", "104825.296000", "104825.312000", "104825.312000", "104825.312000", "104825.312000", "104825.312000", "104825.312000", "104825.312000", "104825.312000", "104825.328000", "104825.328000", "104845.281000", "104845.281000", "104845.281000", "104845.281000", "104845.281000", "104845.296000", "104845.296000", "104845.296000", "104845.296000", "104845.296000", "104845.296000", "104845.296000", "104845.312000", "104845.312000", "104845.312000", "104845.312000", "104845.312000", "104845.312000", "104845.328000", "104845.328000", "104905.281000", "104905.281000", "104905.281000", "104905.281000", "104905.281000", "104905.296000", "104905.296000", "104905.296000", "104905.296000", "104905.296000", "104905.296000", "104905.296000", "104905.296000", "104905.312000", "104905.312000", "104905.312000", "104905.312000", "104905.312000", "104905.312000", "104905.312000", "104925.281000", "104925.281000", "104925.281000", "104925.281000", "104925.281000", "104925.296000", "104925.296000", "104925.296000", "104925.296000", "104925.296000", "104925.296000", "104925.296000", "104925.312000", "104925.312000", "104925.312000", "104925.312000", "104925.312000", "104925.312000", "104925.312000", "104925.328000", "104945.281000", "104945.281000", "104945.281000", "104945.281000", "104945.281000", "104945.296000", "104945.296000", "104945.296000", "104945.296000", "104945.296000", "104945.312000", "104945.312000", "104945.312000", "104945.312000", "104945.312000", "104945.312000", "104945.312000", "104945.328000", "104945.328000", "104945.328000", "105005.281000", "105005.281000", "105005.296000", "105005.296000", "105005.296000", "105005.296000", "105005.296000", "105005.296000", "105005.296000", "105005.296000", "105005.312000", "105005.312000", "105005.312000", "105005.312000", "105005.312000", "105005.312000", "105005.312000", "105005.328000", "105005.328000", "105005.328000", "105025.281000", "105025.281000", "105025.281000", "105025.281000", "105025.296000", "105025.296000", "105025.296000", "105025.296000", "105025.296000", "105025.296000", "105025.296000", "105025.312000", "105025.312000", "105025.312000", "105025.312000", "105025.312000", "105025.312000", "105025.312000", "105025.312000", "105025.328000", "105035.859000", "105035.875000", "105035.875000", "105035.875000", "105035.875000", "105035.875000"],
      "InstanceCreationTime": ["104525.312000", "104525.312000", "104525.328000", "104525.328000", "104525.328000", "104525.328000", "104525.328000", "104525.328000", "104525.328000", "104525.328000", "104525.343000", "104525.343000", "104525.343000", "104525.343000", "104525.343000", "104525.359000", "104525.359000", "104525.359000", "104525.359000", "104525.359000", "104525.359000", "104525.375000", "104525.375000", "104525.375000", "104545.281000", "104545.281000", "104545.281000", "104545.281000", "104545.281000", "104545.296000", "104545.296000", "104545.296000", "104545.296000", "104545.296000", "104545.296000", "104545.296000", "104545.296000", "104545.312000", "104545.312000", "104545.312000", "104545.312000", "104545.312000", "104545.312000", "104545.312000", "104605.281000", "104605.281000", "104605.281000", "104605.281000", "104605.296000", "104605.296000", "104605.296000", "104605.296000", "104605.296000", "104605.296000", "104605.312000", "104605.312000", "104605.312000", "104605.312000", "104605.312000", "104605.312000", "104605.312000", "104605.328000", "104605.328000", "104605.328000", "104625.281000", "104625.281000", "104625.281000", "104625.296000", "104625.296000", "104625.296000", "104625.296000", "104625.296000", "104625.312000", "104625.312000", "104625.312000", "104625.312000", "104625.312000", "104625.312000", "104625.312000", "104625.312000", "104625.328000", "104625.328000", "104625.328000", "104625.328000", "104645.281000", "104645.281000", "104645.281000", "104645.281000", "104645.281000", "104645.296000", "104645.296000", "104645.296000", "104645.296000", "104645.296000", "104645.296000", "104645.296000", "104645.296000", "104645.312000", "104645.312000", "104645.312000", "104645.312000", "104645.312000", "104645.328000", "104645.328000", "104705.281000", "104705.281000", "104705.281000", "104705.281000", "104705.281000", "104705.296000", "104705.296000", "104705.296000", "104705.296000", "104705.296000", "104705.296000", "104705.296000", "104705.296000", "104705.312000", "104705.312000", "104705.312000", "104705.312000", "104705.312000", "104705.312000", "104705.312000", "104725.281000", "104725.281000", "104725.281000", "104725.281000", "104725.281000", "104725.296000", "104725.296000", "104725.296000", "104725.296000", "104725.296000", "104725.296000", "104725.296000", "104725.296000", "104725.312000", "104725.312000", "104725.312000", "104725.312000", "104725.312000", "104725.312000", "104725.312000", "104745.281000", "104745.281000", "104745.281000", "104745.281000", "104745.281000", "104745.296000", "104745.296000", "104745.296000", "104745.296000", "104745.296000", "104745.296000", "104745.296000", "104745.296000", "104745.312000", "104745.312000", "104745.312000", "104745.312000", "104745.312000", "104745.312000", "104745.312000", "104805.281000", "104805.281000", "104805.296000", "104805.296000", "104805.296000", "104805.296000", "104805.296000", "104805.296000", "104805.312000", "104805.312000", "104805.312000", "104805.312000", "104805.312000", "104805.312000", "104805.328000", "104805.328000", "104805.328000", "104805.328000", "104805.328000", "104805.328000", "104825.281000", "104825.281000", "104825.296000", "104825.296000", "104825.296000", "104825.296000", "104825.296000", "104825.296000", "104825.296000", "104825.296000", "104825.312000", "104825.312000", "104825.312000", "104825.312000", "104825.312000", "104825.312000", "104825.312000", "104825.312000", "104825.328000", "104825.328000", "104845.281000", "104845.281000", "104845.281000", "104845.281000", "104845.281000", "104845.296000", "104845.296000", "104845.296000", "104845.296000", "104845.296000", "104845.296000", "104845.296000", "104845.312000", "104845.312000", "104845.312000", "104845.312000", "104845.312000", "104845.312000", "104845.328000", "104845.328000", "104905.281000", "104905.281000", "104905.281000", "104905.281000", "104905.281000", "104905.296000", "104905.296000", "104905.296000", "104905.296000", "104905.296000", "104905.296000", "104905.296000", "104905.296000", "104905.312000", "104905.312000", "104905.312000", "104905.312000", "104905.312000", "104905.312000", "104905.312000", "104925.281000", "104925.281000", "104925.281000", "104925.281000", "104925.281000", "104925.296000", "104925.296000", "104925.296000", "104925.296000", "104925.296000", "104925.296000", "104925.296000", "104925.312000", "104925.312000", "104925.312000", "104925.312000", "104925.312000", "104925.312000", "104925.312000", "104925.328000", "104945.281000", "104945.281000", "104945.281000", "104945.281000", "104945.281000", "104945.296000", "104945.296000", "104945.296000", "104945.296000", "104945.296000", "104945.312000", "104945.312000", "104945.312000", "104945.312000", "104945.312000", "104945.312000", "104945.312000", "104945.328000", "104945.328000", "104945.328000", "105005.281000", "105005.281000", "105005.296000", "105005.296000", "105005.296000", "105005.296000", "105005.296000", "105005.296000", "105005.296000", "105005.296000", "105005.312000", "105005.312000", "105005.312000", "105005.312000", "105005.312000", "105005.312000", "105005.312000", "105005.328000", "105005.328000", "105005.328000", "105025.281000", "105025.281000", "105025.281000", "105025.281000", "105025.296000", "105025.296000", "105025.296000", "105025.296000", "105025.296000", "105025.296000", "105025.296000", "105025.312000", "105025.312000", "105025.312000", "105025.312000", "105025.312000", "105025.312000", "105025.312000", "105025.312000", "105025.328000", "105035.859000", "105035.875000", "105035.875000", "105035.875000", "105035.875000", "105035.875000"],
      "InstanceNumber": [1, 2, 3, 4, 5, 6, 7, 8, 9, 10, 11, 12, 13, 14, 15, 16, 17, 18, 19, 20, 21, 22, 23, 24, 25, 26, 27, 28, 29, 30, 31, 32, 33, 34, 35, 36, 37, 38, 39, 40, 41, 42, 43, 44, 45, 46, 47, 48, 49, 50, 51, 52, 53, 54, 55, 56, 57, 58, 59, 60, 61, 62, 63, 64, 65, 66, 67, 68, 69, 70, 71, 72, 73, 74, 75, 76, 77, 78, 79, 80, 81, 82, 83, 84, 85, 86, 87, 88, 89, 90, 91, 92, 93, 94, 95, 96, 97, 98, 99, 100, 101, 102, 103, 104, 105, 106, 107, 108, 109, 110, 111, 112, 113, 114, 115, 116, 117, 118, 119, 120, 121, 122, 123, 124, 125, 126, 127, 128, 129, 130, 131, 132, 133, 134, 135, 136, 137, 138, 139, 140, 141, 142, 143, 144, 145, 146, 147, 148, 149, 150, 151, 152, 153, 154, 155, 156, 157, 158, 159, 160, 161, 162, 163, 164, 165, 166, 167, 168, 169, 170, 171, 172, 173, 174, 175, 176, 177, 178, 179, 180, 181, 182, 183, 184, 185, 186, 187, 188, 189, 190, 191, 192, 193, 194, 195, 196, 197, 198, 199, 200, 201, 202, 203, 204, 205, 206, 207, 208, 209, 210, 211, 212, 213, 214, 215, 216, 217, 218, 219, 220, 221, 222, 223, 224, 225, 226, 227, 228, 229, 230, 231, 232, 233, 234, 235, 236, 237, 238, 239, 240, 241, 242, 243, 244, 245, 246, 247, 248, 249, 250, 251, 252, 253, 254, 255, 256, 257, 258, 259, 260, 261, 262, 263, 264, 265, 266, 267, 268, 269, 270, 271, 272, 273, 274, 275, 276, 277, 278, 279, 280, 281, 282, 283, 284, 285, 286, 287, 288, 289, 290, 291, 292, 293, 294, 295, 296, 297, 298, 299, 300, 301, 302, 303, 304, 305, 306, 307, 308, 309, 310, 311, 312, 313, 314, 315, 316, 317, 318, 319, 320, 321, 322, 323, 324, 325, 326, 327, 328, 329, 330],
      "LargestImagePixelValue": [2808, 2828, 2834, 2770, 2783, 2803, 2830, 2822, 2820, 2790, 2792, 2748, 2807, 2829, 2781, 2774, 2763, 2808, 2785, 2784, 2787, 2786, 2773, 2790, 2789, 2781, 2846, 2803, 2763, 2788, 2757, 2760, 2739, 2798, 2784, 2777, 2838, 2808, 2831, 2825, 2759, 2770, 2791, 2761, 2734, 2778, 2799, 2787, 2776, 2796, 2799, 2824, 2809, 2810, 2792, 2797, 2787, 2795, 2796, 2829, 2802, 2773, 2804, 2786, 2781, 2779, 2783, 2788, 2760, 2811, 2804, 2864, 2850, 2795, 2772, 2829, 2795, 2783, 2803, 2809, 2813, 2832, 2795, 2793, 2798, 2770, 2776, 2747, 2793, 2810, 2839, 2796, 2794, 2838, 2818, 2800, 2773, 2759, 2819, 2798, 2821, 2799, 2801, 2783, 2798, 2784, 2810, 2788, 2820, 2797, 2864, 2863, 2738, 2827, 2691, 2655, 2629, 2716, 2775, 2819, 2757, 2780, 2783, 2758, 2796, 2752, 2773, 2813, 2808, 2812, 2745, 2797, 2824, 2789, 2796, 2780, 2827, 2835, 2817, 2829, 2882, 2809, 2802, 2789, 2860, 2810, 2802, 2833, 2808, 2809, 2845, 2833, 2780, 2827, 2878, 2799, 2833, 2849, 2847, 2822, 2834, 2811, 2834, 2831, 2817, 2798, 2781, 2814, 2835, 2842, 2855, 2818, 2786, 2838, 2793, 2818, 2832, 2848, 2843, 2805, 2864, 2795, 2819, 2861, 2835, 2860, 2867, 2836, 2840, 2821, 2824, 2796, 2824, 2803, 2830, 2853, 2869, 2839, 2890, 2855, 2806, 2839, 2782, 2849, 2885, 2839, 2824, 2836, 2854, 2847, 2879, 2841, 2837, 2827, 2828, 2845, 2845, 2844, 2869, 2883, 2843, 2877, 2874, 2888, 2860, 2880, 2877, 2787, 2809, 2778, 2782, 2813, 2846, 2833, 2809, 2803, 2782, 2822, 2765, 2823, 2840, 2882, 2874, 2872, 2840, 2821, 2825, 2839, 2857, 2889, 2882, 2849, 2839, 2847, 2855, 2827, 2877, 2828, 2832, 2845, 2824, 2840, 2815, 2849, 2854, 2831, 2847, 2828, 2836, 2835, 2833, 2839, 2845, 2845, 2876, 2824, 2824, 2916, 2857, 2832, 2807, 2789, 2781, 2776, 2765, 2822, 2859, 2819, 2812, 2841, 2799, 2806, 2825, 2812, 2819, 2825, 2807, 2803, 2785, 2832, 2811, 2855, 2842, 2813, 2828, 2814, 2822, 2831, 2824, 2819, 2814, 2813, 2829, 2876, 2826, 2835, 2809, 2793, 2819, 2799, 2845, 2844, 2824, 2810, 2810, 2787, 2823, 2796, 2803, 2829],
      "WindowCenter": [441.0, 440.0, 441.0, 440.0, 440.0, 441.0, 441.0, 441.0, 441.0, 441.0, 440.0, 440.0, 441.0, 442.0, 441.0, 441.0, 441.0, 442.0, 443.0, 443.0, 443.0, 443.0, 442.0, 441.0, 441.0, 440.0, 441.0, 442.0, 441.0, 442.0, 442.0, 441.0, 440.0, 440.0, 438.0, 438.0, 440.0, 438.0, 440.0, 440.0, 438.0, 439.0, 440.0, 439.0, 438.0, 438.0, 438.0, 437.0, 437.0, 437.0, 437.0, 437.0, 438.0, 438.0, 437.0, 437.0, 437.0, 437.0, 438.0, 439.0, 439.0, 439.0, 440.0, 439.0, 439.0, 440.0, 440.0, 440.0, 441.0, 442.0, 441.0, 443.0, 444.0, 443.0, 443.0, 443.0, 442.0, 441.0, 441.0, 441.0, 440.0, 441.0, 442.0, 442.0, 442.0, 441.0, 440.0, 439.0, 439.0, 439.0, 440.0, 441.0, 442.0, 443.0, 443.0, 442.0, 440.0, 439.0, 439.0, 440.0, 440.0, 439.0, 438.0, 439.0, 439.0, 439.0, 438.0, 438.0, 439.0, 438.0, 440.0, 440.0, 440.0, 439.0, 439.0, 440.0, 441.0, 439.0, 439.0, 439.0, 438.0, 437.0, 436.0, 433.0, 432.0, 430.0, 430.0, 430.0, 431.0, 431.0, 432.0, 434.0, 436.0, 436.0, 436.0, 436.0, 438.0, 439.0, 440.0, 442.0, 443.0, 443.0, 443.0, 443.0, 445.0, 444.0, 444.0, 445.0, 445.0, 445.0, 445.0, 446.0, 445.0, 445.0, 446.0, 445.0, 445.0, 446.0, 446.0, 445.0, 446.0, 446.0, 446.0, 447.0, 447.0, 446.0, 446.0, 445.0, 445.0, 444.0, 445.0, 445.0, 444.0, 445.0, 444.0, 445.0, 445.0, 446.0, 446.0, 445.0, 446.0, 445.0, 445.0, 445.0, 444.0, 444.0, 445.0, 444.0, 444.0, 443.0, 442.0, 442.0, 442.0, 442.0, 443.0, 443.0, 443.0, 444.0, 445.0, 445.0, 445.0, 445.0, 445.0, 444.0, 445.0, 444.0, 444.0, 444.0, 444.0, 444.0, 444.0, 443.0, 442.0, 441.0, 441.0, 441.0, 441.0, 442.0, 442.0, 443.0, 443.0, 444.0, 444.0, 445.0, 445.0, 446.0, 446.0, 443.0, 442.0, 442.0, 441.0, 442.0, 442.0, 443.0, 444.0, 444.0, 443.0, 443.0, 442.0, 442.0, 441.0, 441.0, 442.0, 443.0, 442.0, 441.0, 440.0, 440.0, 439.0, 440.0, 440.0, 440.0, 441.0, 442.0, 441.0, 440.0, 441.0, 440.0, 440.0, 439.0, 440.0, 440.0, 441.0, 442.0, 442.0, 443.0, 443.0, 442.0, 442.0, 442.0, 442.0, 442.0, 442.0, 441.0, 442.0, 442.0, 442.0, 445.0, 444.0, 443.0, 443.0, 443.0, 443.0, 443.0, 443.0, 443.0, 443.0, 443.0, 444.0, 445.0, 444.0, 444.0, 444.0, 443.0, 443.0, 443.0, 443.0, 442.0, 442.0, 443.0, 442.0, 443.0, 444.0, 445.0, 444.0, 444.0, 443.0, 442.0, 442.0, 442.0, 441.0, 442.0, 442.0, 442.0, 442.0, 444.0, 444.0, 444.0, 444.0, 443.0, 443.0, 443.0, 442.0, 442.0, 442.0, 442.0, 443.0, 442.0, 442.0, 442.0],
