{
  "AcquisitionMatrixPE": 104,
  "AcquisitionNumber": 1,
  "AcquisitionTime": "11:04:25.480000",
  "BandwidthPerPixelPhaseEncode": 43.054,
  "BaseResolution": 104,
  "CoilString": "C:E1_2",
  "ConversionSoftware": "dcm2niix",
  "ConversionSoftwareVersion": "v1.0.20191031",
  "DerivedVendorReportedEchoSpacing": 0.000669999,
  "DeviceSerialNumber": "18932",
  "DwellTime": 2.8e-06,
  "EchoTime": 0.02,
  "EffectiveEchoSpacing": 0.000223333,
  "FlipAngle": 30,
  "ImageComments": "Unaliased_MB2_PE2",
  "ImageOrientationPatientDICOM": [1, 2e-16, 0, -2e-16, 0.982613, -0.185667],
  "ImageType": [
    "ORIGINAL",
    "PRIMARY",
    "M",
    "MB",
    "ND",
    "MOSAIC"
],
  "ImagingFrequency": 297.229,
  "InPlanePhaseEncodingDirectionDICOM": "COL",
  "InstitutionAddress": "Richmond_Street_North_1151_London_409EF2_Ontario_CA_N6A_5B7",
  "InstitutionName": "Robarts_Reserch_Institute",
  "InstitutionalDepartmentName": "Department",
  "MRAcquisitionType": "2D",
  "MagneticFieldStrength": 6.98,
  "Manufacturer": "Siemens",
  "ManufacturersModelName": "Investigational_Device_7T",
  "Modality": "MR",
  "MultibandAccelerationFactor": 2,
  "ParallelReductionFactorInPlane": 3,
  "PartialFourier": 0.875,
  "PatientPosition": "HFS",
  "PercentPhaseFOV": 100,
  "PhaseEncodingDirection": "j-",
  "PhaseEncodingSteps": 91,
  "PhaseResolution": 1,
  "PixelBandwidth": 1717,
  "ProcedureStepDescription": "Diedrichsen_SeqRep4",
  "ProtocolName": "mbep2d_bold_mb2_p3_AP_2iso",
  "PulseSequenceDetails": "%CustomerSeq%_cmrr_mbep2d_bold",
  "ReceiveCoilName": "CFMM_8Tx32Rx",
  "ReconMatrixPE": 104,
  "RefLinesPE": 36,
  "RepetitionTime": 1,
  "ScanOptions": "PFP_FS",
  "ScanningSequence": "EP",
  "SequenceName": "epfid2d1_104",
  "SequenceVariant": "SK_SS",
  "SeriesDescription": "mbep2d_bold_mb2_p3_AP_2iso",
  "SeriesNumber": 34,
  "ShimSetting": [18, 2052, 32, 1280, -95, -108, 282, -116],
  "SliceThickness": 2,
  "SliceTiming": [0, 0.2275, 0.455, 0.6825, 0.91, 0.135, 0.3625, 0.5925, 0.82, 0.045, 0.2725, 0.5, 0.7275, 0.9575, 0.1825, 0.41, 0.6375, 0.865, 0.09, 0.3175, 0.545, 0.775, 0, 0.2275, 0.455, 0.6825, 0.91, 0.135, 0.3625, 0.5925, 0.82, 0.045, 0.2725, 0.5, 0.7275, 0.9575, 0.1825, 0.41, 0.6375, 0.865, 0.09, 0.3175, 0.545, 0.775],
  "SoftwareVersions": "syngo_MR_B17",
  "SpacingBetweenSlices": 2,
  "StationName": "MASTER",
  "TaskName": "dsp",
  "TotalReadoutTime": 0.0230033,
  "TxRefAmp": 120,
  "dcmmeta_affine": [
    [-2.0, -4.000000067449534e-16, 7.426664444028518e-17, 105.4527816772461],
    [-4.000000067449534e-16, 1.9652255773544312, -0.37133321166038513, -104.59367370605469],
    [0.0, 0.37133321166038513, 1.9652255773544312, -53.975868225097656],
    [0.0, 0.0, 0.0, 1.0]
],
  "dcmmeta_reorient_transform": [
    [0.0, -1.0, 0.0, 103.0],
    [1.0, 0.0, 0.0, 0.0],
    [0.0, 0.0, 1.0, 0.0],
    [0.0, 0.0, 0.0, 1.0]
],
  "dcmmeta_shape": [104, 104, 44, 330],
  "dcmmeta_slice_dim": 2,
  "dcmmeta_version": 0.6,
  "global": {
    "const": {
      "AcquisitionMatrix": [104, 0, 0, 104],
      "AngioFlag": "N",
      "BitsAllocated": 16,
      "BitsStored": 12,
      "Columns": 728,
      "EchoNumbers": 1,
      "EchoTime": 20.0,
      "EchoTrainLength": 1,
      "FlipAngle": 30.0,
      "HighBit": 11,
      "ImageOrientationPatient": [1.0, 2e-16, 0.0, -2e-16, 0.9826127972607, -0.1856666115905],
      "ImagePositionPatient": [-729.45278453827, -710.97494464142, 100.12742092345],
      "ImageType": [
        "ORIGINAL",
        "PRIMARY",
        "M",
        "MB",
        "ND",
        "MOSAIC"
],
      "ImagedNucleus": "1H",
      "ImagingFrequency": 297.228861,
      "InPlanePhaseEncodingDirection": "COL",
      "MRAcquisitionType": "2D",
      "MagneticFieldStrength": 6.98,
      "Manufacturer": "SIEMENS",
      "ManufacturerModelName": "Investigational_Device_7T",
      "Modality": "MR",
      "NumberOfAverages": 1.0,
      "NumberOfPhaseEncodingSteps": 91,
      "PercentPhaseFieldOfView": 100.0,
      "PercentSampling": 100.0,
      "PerformedProcedureStepStartTime": "094408.468000",
      "PhotometricInterpretation": "MONOCHROME2",
      "PixelBandwidth": 1717.0,
      "PixelRepresentation": 0,
      "PixelSpacing": [2.0, 2.0],
      "ProtocolName": "mbep2d_bold_mb2_p3_AP 2iso",
      "RepetitionTime": 1000.0,
      "Rows": 728,
      "SAR": 0.0,
      "SamplesPerPixel": 1,
      "ScanOptions": [
        "PFP",
        "FS"
],
      "ScanningSequence": "EP",
      "SequenceName": "epfid2d1_104",
      "SequenceVariant": [
        "SK",
        "SS"
],
      "SeriesDescription": "mbep2d_bold_mb2_p3_AP 2iso",
      "SeriesNumber": 34,
      "SeriesTime": "110505.312000",
      "SliceLocation": -33.617823741243,
      "SliceThickness": 2.0,
      "SmallestImagePixelValue": 0,
      "SoftwareVersions": "syngo MR B17",
      "SpacingBetweenSlices": 1.9999999843164,
      "SpecificCharacterSet": "ISO_IR 100",
      "StudyID": "1",
      "StudyTime": "094408.390000",
      "TransmitCoilName": "CFMM_8Tx32Rx",
      "VariableFlipAngleFlag": "N",
      "WindowCenterWidthExplanation": "Algo1",
      "dBdt": 0.0},
    "slices": {}
  },
  "time": {
    "samples": {
      "AcquisitionNumber": [1, 2, 3, 4, 5, 6, 7, 8, 9, 10, 11, 12, 13, 14, 15, 16, 17, 18, 19, 20, 21, 22, 23, 24, 25, 26, 27, 28, 29, 30, 31, 32, 33, 34, 35, 36, 37, 38, 39, 40, 41, 42, 43, 44, 45, 46, 47, 48, 49, 50, 51, 52, 53, 54, 55, 56, 57, 58, 59, 60, 61, 62, 63, 64, 65, 66, 67, 68, 69, 70, 71, 72, 73, 74, 75, 76, 77, 78, 79, 80, 81, 82, 83, 84, 85, 86, 87, 88, 89, 90, 91, 92, 93, 94, 95, 96, 97, 98, 99, 100, 101, 102, 103, 104, 105, 106, 107, 108, 109, 110, 111, 112, 113, 114, 115, 116, 117, 118, 119, 120, 121, 122, 123, 124, 125, 126, 127, 128, 129, 130, 131, 132, 133, 134, 135, 136, 137, 138, 139, 140, 141, 142, 143, 144, 145, 146, 147, 148, 149, 150, 151, 152, 153, 154, 155, 156, 157, 158, 159, 160, 161, 162, 163, 164, 165, 166, 167, 168, 169, 170, 171, 172, 173, 174, 175, 176, 177, 178, 179, 180, 181, 182, 183, 184, 185, 186, 187, 188, 189, 190, 191, 192, 193, 194, 195, 196, 197, 198, 199, 200, 201, 202, 203, 204, 205, 206, 207, 208, 209, 210, 211, 212, 213, 214, 215, 216, 217, 218, 219, 220, 221, 222, 223, 224, 225, 226, 227, 228, 229, 230, 231, 232, 233, 234, 235, 236, 237, 238, 239, 240, 241, 242, 243, 244, 245, 246, 247, 248, 249, 250, 251, 252, 253, 254, 255, 256, 257, 258, 259, 260, 261, 262, 263, 264, 265, 266, 267, 268, 269, 270, 271, 272, 273, 274, 275, 276, 277, 278, 279, 280, 281, 282, 283, 284, 285, 286, 287, 288, 289, 290, 291, 292, 293, 294, 295, 296, 297, 298, 299, 300, 301, 302, 303, 304, 305, 306, 307, 308, 309, 310, 311, 312, 313, 314, 315, 316, 317, 318, 319, 320, 321, 322, 323, 324, 325, 326, 327, 328, 329, 330],
      "AcquisitionTime": ["110425.480000", "110426.482500", "110427.487500", "110428.490000", "110429.495000", "110430.500000", "110431.502500", "110432.507500", "110433.510000", "110434.515000", "110435.520000", "110436.522500", "110437.527500", "110438.530000", "110439.535000", "110440.540000", "110441.542500", "110442.547500", "110443.550000", "110444.555000", "110445.560000", "110446.562500", "110447.567500", "110448.570000", "110449.575000", "110450.580000", "110451.582500", "110452.587500", "110453.592500", "110454.595000", "110455.600000", "110456.602500", "110457.607500", "110458.612500", "110459.615000", "110500.620000", "110501.622500", "110502.627500", "110503.632500", "110504.635000", "110505.640000", "110506.642500", "110507.647500", "110508.652500", "110509.655000", "110510.660000", "110511.662500", "110512.667500", "110513.672500", "110514.675000", "110515.680000", "110516.682500", "110517.687500", "110518.692500", "110519.695000", "110520.700000", "110521.702500", "110522.707500", "110523.712500", "110524.715000", "110525.720000", "110526.725000", "110527.727500", "110528.732500", "110529.735000", "110530.740000", "110531.745000", "110532.747500", "110533.752500", "110534.755000", "110535.760000", "110536.765000", "110537.767500", "110538.772500", "110539.775000", "110540.780000", "110541.785000", "110542.787500", "110543.792500", "110544.795000", "110545.800000", "110546.805000", "110547.807500", "110548.812500", "110549.815000", "110550.820000", "110551.825000", "110552.827500", "110553.832500", "110554.837500", "110555.840000", "110556.845000", "110557.847500", "110558.852500", "110559.857500", "110600.860000", "110601.865000", "110602.867500", "110603.872500", "110604.877500", "110605.880000", "110606.885000", "110607.887500", "110608.892500", "110609.897500", "110610.900000", "110611.905000", "110612.907500", "110613.912500", "110614.917500", "110615.920000", "110616.925000", "110617.927500", "110618.932500", "110619.937500", "110620.940000", "110621.945000", "110622.947500", "110623.952500", "110624.957500", "110625.960000", "110626.965000", "110627.970000", "110628.972500", "110629.977500", "110630.980000", "110631.985000", "110632.990000", "110633.992500", "110634.997500", "110636.000000", "110637.005000", "110638.010000", "110639.012500", "110640.017500", "110641.020000", "110642.025000", "110643.030000", "110644.032500", "110645.037500", "110646.040000", "110647.045000", "110648.050000", "110649.052500", "110650.057500", "110651.060000", "110652.065000", "110653.070000", "110654.072500", "110655.077500", "110656.080000", "110657.085000", "110658.090000", "110659.092500", "110700.097500", "110701.102500", "110702.105000", "110703.110000", "110704.112500", "110705.117500", "110706.122500", "110707.125000", "110708.130000", "110709.132500", "110710.137500", "110711.142500", "110712.145000", "110713.150000", "110714.152500", "110715.157500", "110716.162500", "110717.165000", "110718.170000", "110719.172500", "110720.177500", "110721.182500", "110722.185000", "110723.190000", "110724.192500", "110725.197500", "110726.202500", "110727.205000", "110728.210000", "110729.215000", "110730.217500", "110731.222500", "110732.225000", "110733.230000", "110734.235000", "110735.237500", "110736.242500", "110737.245000", "110738.250000", "110739.255000", "110740.257500", "110741.262500", "110742.265000", "110743.270000", "110744.275000", "110745.277500", "110746.282500", "110747.285000", "110748.290000", "110749.295000", "110750.297500", "110751.302500", "110752.305000", "110753.310000", "110754.315000", "110755.317500", "110756.322500", "110757.325000", "110758.330000", "110759.335000", "110800.337500", "110801.342500", "110802.347500", "110803.350000", "110804.355000", "110805.357500", "110806.362500", "110807.367500", "110808.370000", "110809.375000", "110810.377500", "110811.382500", "110812.387500", "110813.390000", "110814.395000", "110815.397500", "110816.402500", "110817.407500", "110818.410000", "110819.415000", "110820.417500", "110821.422500", "110822.427500", "110823.430000", "110824.435000", "110825.437500", "110826.442500", "110827.447500", "110828.450000", "110829.455000", "110830.457500", "110831.462500", "110832.467500", "110833.470000", "110834.475000", "110835.480000", "110836.482500", "110837.487500", "110838.490000", "110839.495000", "110840.500000", "110841.502500", "110842.507500", "110843.510000", "110844.515000", "110845.520000", "110846.522500", "110847.527500", "110848.530000", "110849.535000", "110850.540000", "110851.542500", "110852.547500", "110853.550000", "110854.555000", "110855.560000", "110856.562500", "110857.567500", "110858.570000", "110859.575000", "110900.580000", "110901.582500", "110902.587500", "110903.592500", "110904.595000", "110905.600000", "110906.602500", "110907.607500", "110908.612500", "110909.615000", "110910.620000", "110911.622500", "110912.627500", "110913.632500", "110914.635000", "110915.640000", "110916.642500", "110917.647500", "110918.652500", "110919.655000", "110920.660000", "110921.662500", "110922.667500", "110923.672500", "110924.675000", "110925.680000", "110926.682500", "110927.687500", "110928.692500", "110929.695000", "110930.700000", "110931.702500", "110932.707500", "110933.712500", "110934.715000", "110935.720000", "110936.725000", "110937.727500", "110938.732500", "110939.735000", "110940.740000", "110941.745000", "110942.747500", "110943.752500", "110944.755000", "110945.760000", "110946.765000", "110947.767500", "110948.772500", "110949.775000", "110950.780000", "110951.785000", "110952.787500", "110953.792500", "110954.795000", "110955.800000"],
      "ContentTime": ["110505.312000", "110505.328000", "110505.328000", "110505.328000", "110505.328000", "110505.343000", "110505.343000", "110505.343000", "110505.343000", "110505.343000", "110505.343000", "110505.359000", "110505.359000", "110505.359000", "110505.359000", "110505.359000", "110505.359000", "110505.359000", "110505.359000", "110505.375000", "110505.375000", "110505.375000", "110505.375000", "110505.375000", "110505.375000", "110505.375000", "110505.390000", "110505.390000", "110505.390000", "110505.390000", "110505.390000", "110505.390000", "110505.390000", "110505.390000", "110505.406000", "110505.406000", "110505.406000", "110505.406000", "110525.281000", "110525.281000", "110525.281000", "110525.281000", "110525.281000", "110525.296000", "110525.296000", "110525.296000", "110525.296000", "110525.296000", "110525.296000", "110525.296000", "110525.296000", "110525.312000", "110525.312000", "110525.312000", "110525.312000", "110525.312000", "110525.312000", "110525.328000", "110545.281000", "110545.281000", "110545.281000", "110545.281000", "110545.281000", "110545.296000", "110545.296000", "110545.296000", "110545.296000", "110545.296000", "110545.296000", "110545.296000", "110545.296000", "110545.312000", "110545.312000", "110545.312000", "110545.312000", "110545.312000", "110545.312000", "110545.312000", "110605.281000", "110605.281000", "110605.281000", "110605.296000", "110605.296000", "110605.296000", "110605.296000", "110605.296000", "110605.296000", "110605.296000", "110605.296000", "110605.312000", "110605.312000", "110605.312000", "110605.312000", "110605.312000", "110605.312000", "110605.312000", "110605.328000", "110605.328000", "110625.281000", "110625.281000", "110625.281000", "110625.281000", "110625.281000", "110625.296000", "110625.296000", "110625.296000", "110625.296000", "110625.296000", "110625.296000", "110625.296000", "110625.296000", "110625.312000", "110625.312000", "110625.312000", "110625.312000", "110625.312000", "110625.312000", "110625.312000", "110645.281000", "110645.281000", "110645.281000", "110645.281000", "110645.281000", "110645.296000", "110645.296000", "110645.296000", "110645.296000", "110645.296000", "110645.296000", "110645.296000", "110645.296000", "110645.312000", "110645.312000", "110645.312000", "110645.312000", "110645.312000", "110645.312000", "110645.312000", "110705.281000", "110705.281000", "110705.281000", "110705.281000", "110705.281000", "110705.296000", "110705.296000", "110705.296000", "110705.296000", "110705.296000", "110705.296000", "110705.296000", "110705.312000", "110705.312000", "110705.312000", "110705.312000", "110705.312000", "110705.312000", "110705.312000", "110705.328000", "110725.281000", "110725.281000", "110725.281000", "110725.296000", "110725.296000", "110725.312000", "110725.312000", "110725.312000", "110725.312000", "110725.312000", "110725.328000", "110725.328000", "110725.328000", "110725.328000", "110725.328000", "110725.328000", "110725.328000", "110725.343000", "110725.343000", "110725.343000", "110745.281000", "110745.281000", "110745.281000", "110745.281000", "110745.281000", "110745.281000", "110745.296000", "110745.296000", "110745.296000", "110745.296000", "110745.296000", "110745.296000", "110745.296000", "110745.312000", "110745.312000", "110745.312000", "110745.312000", "110745.328000", "110745.328000", "110745.328000", "110805.281000", "110805.281000", "110805.281000", "110805.281000", "110805.281000", "110805.296000", "110805.296000", "110805.312000", "110805.312000", "110805.312000", "110805.312000", "110805.312000", "110805.312000", "110805.312000", "110805.328000", "110805.328000", "110805.328000", "110805.328000", "110805.328000", "110805.328000", "110825.281000", "110825.281000", "110825.281000", "110825.281000", "110825.281000", "110825.296000", "110825.296000", "110825.312000", "110825.312000", "110825.312000", "110825.312000", "110825.312000", "110825.328000", "110825.328000", "110825.328000", "110825.328000", "110825.328000", "110825.328000", "110825.328000", "110825.328000", "110845.281000", "110845.281000", "110845.281000", "110845.281000", "110845.296000", "110845.296000", "110845.296000", "110845.296000", "110845.296000", "110845.296000", "110845.296000", "110845.312000", "110845.312000", "110845.312000", "110845.312000", "110845.312000", "110845.312000", "110845.312000", "110845.328000", "110845.328000", "110905.281000", "110905.281000", "110905.281000", "110905.281000", "110905.296000", "110905.296000", "110905.296000", "110905.296000", "110905.296000", "110905.296000", "110905.312000", "110905.312000", "110905.312000", "110905.312000", "110905.328000", "110905.328000", "110905.328000", "110905.328000", "110905.328000", "110905.328000", "110925.281000", "110925.281000", "110925.281000", "110925.281000", "110925.281000", "110925.296000", "110925.296000", "110925.296000", "110925.296000", "110925.296000", "110925.296000", "110925.296000", "110925.296000", "110925.312000", "110925.312000", "110925.312000", "110925.312000", "110925.312000", "110925.312000", "110925.312000", "110945.281000", "110945.281000", "110945.281000", "110945.281000", "110945.281000", "110945.296000", "110945.296000", "110945.296000", "110945.296000", "110945.296000", "110945.296000", "110945.296000", "110945.312000", "110945.312000", "110945.312000", "110945.312000", "110945.312000", "110945.312000", "110945.312000", "110945.312000", "111002.140000", "111002.156000", "111002.156000", "111002.156000", "111002.156000", "111002.156000", "111002.156000", "111002.156000", "111002.171000", "111002.171000", "111002.171000", "111002.171000"],
      "InstanceCreationTime": ["110505.312000", "110505.328000", "110505.328000", "110505.328000", "110505.328000", "110505.343000", "110505.343000", "110505.343000", "110505.343000", "110505.343000", "110505.343000", "110505.359000", "110505.359000", "110505.359000", "110505.359000", "110505.359000", "110505.359000", "110505.359000", "110505.359000", "110505.375000", "110505.375000", "110505.375000", "110505.375000", "110505.375000", "110505.375000", "110505.375000", "110505.390000", "110505.390000", "110505.390000", "110505.390000", "110505.390000", "110505.390000", "110505.390000", "110505.390000", "110505.406000", "110505.406000", "110505.406000", "110505.406000", "110525.281000", "110525.281000", "110525.281000", "110525.281000", "110525.281000", "110525.296000", "110525.296000", "110525.296000", "110525.296000", "110525.296000", "110525.296000", "110525.296000", "110525.296000", "110525.312000", "110525.312000", "110525.312000", "110525.312000", "110525.312000", "110525.312000", "110525.328000", "110545.281000", "110545.281000", "110545.281000", "110545.281000", "110545.281000", "110545.296000", "110545.296000", "110545.296000", "110545.296000", "110545.296000", "110545.296000", "110545.296000", "110545.296000", "110545.312000", "110545.312000", "110545.312000", "110545.312000", "110545.312000", "110545.312000", "110545.312000", "110605.281000", "110605.281000", "110605.281000", "110605.296000", "110605.296000", "110605.296000", "110605.296000", "110605.296000", "110605.296000", "110605.296000", "110605.296000", "110605.312000", "110605.312000", "110605.312000", "110605.312000", "110605.312000", "110605.312000", "110605.312000", "110605.328000", "110605.328000", "110625.281000", "110625.281000", "110625.281000", "110625.281000", "110625.281000", "110625.296000", "110625.296000", "110625.296000", "110625.296000", "110625.296000", "110625.296000", "110625.296000", "110625.296000", "110625.312000", "110625.312000", "110625.312000", "110625.312000", "110625.312000", "110625.312000", "110625.312000", "110645.281000", "110645.281000", "110645.281000", "110645.281000", "110645.281000", "110645.296000", "110645.296000", "110645.296000", "110645.296000", "110645.296000", "110645.296000", "110645.296000", "110645.296000", "110645.312000", "110645.312000", "110645.312000", "110645.312000", "110645.312000", "110645.312000", "110645.312000", "110705.281000", "110705.281000", "110705.281000", "110705.281000", "110705.281000", "110705.296000", "110705.296000", "110705.296000", "110705.296000", "110705.296000", "110705.296000", "110705.296000", "110705.312000", "110705.312000", "110705.312000", "110705.312000", "110705.312000", "110705.312000", "110705.312000", "110705.328000", "110725.281000", "110725.281000", "110725.281000", "110725.296000", "110725.296000", "110725.312000", "110725.312000", "110725.312000", "110725.312000", "110725.312000", "110725.328000", "110725.328000", "110725.328000", "110725.328000", "110725.328000", "110725.328000", "110725.328000", "110725.343000", "110725.343000", "110725.343000", "110745.281000", "110745.281000", "110745.281000", "110745.281000", "110745.281000", "110745.281000", "110745.296000", "110745.296000", "110745.296000", "110745.296000", "110745.296000", "110745.296000", "110745.296000", "110745.312000", "110745.312000", "110745.312000", "110745.312000", "110745.328000", "110745.328000", "110745.328000", "110805.281000", "110805.281000", "110805.281000", "110805.281000", "110805.281000", "110805.296000", "110805.296000", "110805.312000", "110805.312000", "110805.312000", "110805.312000", "110805.312000", "110805.312000", "110805.312000", "110805.328000", "110805.328000", "110805.328000", "110805.328000", "110805.328000", "110805.328000", "110825.281000", "110825.281000", "110825.281000", "110825.281000", "110825.281000", "110825.296000", "110825.296000", "110825.312000", "110825.312000", "110825.312000", "110825.312000", "110825.312000", "110825.328000", "110825.328000", "110825.328000", "110825.328000", "110825.328000", "110825.328000", "110825.328000", "110825.328000", "110845.281000", "110845.281000", "110845.281000", "110845.281000", "110845.296000", "110845.296000", "110845.296000", "110845.296000", "110845.296000", "110845.296000", "110845.296000", "110845.312000", "110845.312000", "110845.312000", "110845.312000", "110845.312000", "110845.312000", "110845.312000", "110845.328000", "110845.328000", "110905.281000", "110905.281000", "110905.281000", "110905.281000", "110905.296000", "110905.296000", "110905.296000", "110905.296000", "110905.296000", "110905.296000", "110905.312000", "110905.312000", "110905.312000", "110905.312000", "110905.328000", "110905.328000", "110905.328000", "110905.328000", "110905.328000", "110905.328000", "110925.281000", "110925.281000", "110925.281000", "110925.281000", "110925.281000", "110925.296000", "110925.296000", "110925.296000", "110925.296000", "110925.296000", "110925.296000", "110925.296000", "110925.296000", "110925.312000", "110925.312000", "110925.312000", "110925.312000", "110925.312000", "110925.312000", "110925.312000", "110945.281000", "110945.281000", "110945.281000", "110945.281000", "110945.281000", "110945.296000", "110945.296000", "110945.296000", "110945.296000", "110945.296000", "110945.296000", "110945.296000", "110945.312000", "110945.312000", "110945.312000", "110945.312000", "110945.312000", "110945.312000", "110945.312000", "110945.312000", "111002.140000", "111002.156000", "111002.156000", "111002.156000", "111002.156000", "111002.156000", "111002.156000", "111002.156000", "111002.171000", "111002.171000", "111002.171000", "111002.171000"],
      "InstanceNumber": [1, 2, 3, 4, 5, 6, 7, 8, 9, 10, 11, 12, 13, 14, 15, 16, 17, 18, 19, 20, 21, 22, 23, 24, 25, 26, 27, 28, 29, 30, 31, 32, 33, 34, 35, 36, 37, 38, 39, 40, 41, 42, 43, 44, 45, 46, 47, 48, 49, 50, 51, 52, 53, 54, 55, 56, 57, 58, 59, 60, 61, 62, 63, 64, 65, 66, 67, 68, 69, 70, 71, 72, 73, 74, 75, 76, 77, 78, 79, 80, 81, 82, 83, 84, 85, 86, 87, 88, 89, 90, 91, 92, 93, 94, 95, 96, 97, 98, 99, 100, 101, 102, 103, 104, 105, 106, 107, 108, 109, 110, 111, 112, 113, 114, 115, 116, 117, 118, 119, 120, 121, 122, 123, 124, 125, 126, 127, 128, 129, 130, 131, 132, 133, 134, 135, 136, 137, 138, 139, 140, 141, 142, 143, 144, 145, 146, 147, 148, 149, 150, 151, 152, 153, 154, 155, 156, 157, 158, 159, 160, 161, 162, 163, 164, 165, 166, 167, 168, 169, 170, 171, 172, 173, 174, 175, 176, 177, 178, 179, 180, 181, 182, 183, 184, 185, 186, 187, 188, 189, 190, 191, 192, 193, 194, 195, 196, 197, 198, 199, 200, 201, 202, 203, 204, 205, 206, 207, 208, 209, 210, 211, 212, 213, 214, 215, 216, 217, 218, 219, 220, 221, 222, 223, 224, 225, 226, 227, 228, 229, 230, 231, 232, 233, 234, 235, 236, 237, 238, 239, 240, 241, 242, 243, 244, 245, 246, 247, 248, 249, 250, 251, 252, 253, 254, 255, 256, 257, 258, 259, 260, 261, 262, 263, 264, 265, 266, 267, 268, 269, 270, 271, 272, 273, 274, 275, 276, 277, 278, 279, 280, 281, 282, 283, 284, 285, 286, 287, 288, 289, 290, 291, 292, 293, 294, 295, 296, 297, 298, 299, 300, 301, 302, 303, 304, 305, 306, 307, 308, 309, 310, 311, 312, 313, 314, 315, 316, 317, 318, 319, 320, 321, 322, 323, 324, 325, 326, 327, 328, 329, 330],
      "LargestImagePixelValue": [2895, 2815, 2818, 2765, 2781, 2775, 2751, 2755, 2818, 2813, 2781, 2797, 2762, 2748, 2724, 2754, 2786, 2768, 2803, 2836, 2812, 2786, 2749, 2797, 2810, 2801, 2766, 2747, 2795, 2782, 2748, 2756, 2760, 2781, 2776, 2794, 2788, 2812, 2795, 2786, 2745, 2738, 2798, 2736, 2820, 2821, 2710, 2734, 2775, 2729, 2725, 2744, 2738, 2757, 2793, 2685, 2692, 2702, 2722, 2733, 2741, 2740, 2719, 2778, 2786, 2801, 2707, 2763, 2758, 2829, 2790, 2729, 2733, 2768, 2731, 2747, 2746, 2741, 2727, 2754, 2746, 2759, 2769, 2760, 2746, 2808, 2810, 2769, 2753, 2744, 2682, 2735, 2783, 2718, 2754, 2700, 2752, 2778, 2799, 2785, 2798, 2729, 2714, 2758, 2747, 2728, 2753, 2740, 2741, 2745, 2740, 2761, 2787, 2779, 2765, 2798, 2762, 2809, 2791, 2778, 2789, 2792, 2755, 2765, 2787, 2821, 2783, 2821, 2799, 2789, 2779, 2794, 2808, 2725, 2764, 2758, 2800, 2839, 2755, 2769, 2779, 2786, 2731, 2747, 2756, 2774, 2758, 2778, 2774, 2825, 2745, 2805, 2802, 2765, 2769, 2761, 2771, 2748, 2781, 2761, 2821, 2794, 2776, 2801, 2806, 2763, 2755, 2747, 2747, 2830, 2816, 2803, 2757, 2778, 2744, 2775, 2807, 2794, 2789, 2793, 2801, 2794, 2791, 2758, 2788, 2782, 2789, 2738, 2824, 2772, 2773, 2790, 2766, 2782, 2756, 2795, 2791, 2758, 2778, 2788, 2793, 2797, 2806, 2836, 2805, 2821, 2747, 2769, 2781, 2792, 2840, 2786, 2807, 2788, 2780, 2813, 2726, 2753, 2756, 2823, 2776, 2787, 2749, 2783, 2766, 2764, 2764, 2750, 2776, 2842, 2805, 2843, 2847, 2742, 2720, 2708, 2728, 2744, 2717, 2732, 2759, 2823, 2802, 2778, 2800, 2753, 2794, 2816, 2736, 2775, 2762, 2800, 2823, 2757, 2789, 2782, 2772, 2770, 2814, 2769, 2762, 2792, 2755, 2801, 2768, 2739, 2781, 2782, 2780, 2791, 2752, 2766, 2746, 2796, 2717, 2722, 2725, 2749, 2714, 2747, 2769, 2801, 2743, 2747, 2748, 2736, 2713, 2715, 2715, 2770, 2698, 2743, 2763, 2790, 2791, 2752, 2734, 2743, 2742, 2784, 2816, 2750, 2807, 2804, 2787, 2787, 2740, 2837, 2801, 2798, 2748, 2731, 2683, 2732, 2686, 2710, 2722, 2738, 2717, 2705, 2721, 2841, 2766, 2796, 2731, 2752, 2770, 2737, 2716, 2812],
      "WindowCenter": [439.0, 437.0, 437.0, 437.0, 437.0, 437.0, 437.0, 438.0, 439.0, 438.0, 438.0, 438.0, 438.0, 439.0, 440.0, 440.0, 440.0, 438.0, 438.0, 438.0, 438.0, 439.0, 440.0, 442.0, 442.0, 442.0, 441.0, 439.0, 440.0, 440.0, 438.0, 438.0, 439.0, 438.0, 438.0, 437.0, 438.0, 437.0, 438.0, 438.0, 438.0, 438.0, 439.0, 437.0, 438.0, 438.0, 437.0, 438.0, 439.0, 437.0, 437.0, 437.0, 435.0, 435.0, 435.0, 434.0, 435.0, 437.0, 437.0, 437.0, 437.0, 437.0, 436.0, 437.0, 436.0, 437.0, 437.0, 438.0, 438.0, 439.0, 439.0, 438.0, 440.0, 438.0, 435.0, 437.0, 438.0, 438.0, 438.0, 437.0, 437.0, 437.0, 436.0, 436.0, 436.0, 436.0, 436.0, 435.0, 436.0, 436.0, 436.0, 437.0, 438.0, 439.0, 440.0, 438.0, 438.0, 437.0, 437.0, 437.0, 438.0, 438.0, 438.0, 440.0, 439.0, 438.0, 437.0, 436.0, 436.0, 435.0, 436.0, 437.0, 437.0, 439.0, 439.0, 439.0, 437.0, 437.0, 436.0, 437.0, 438.0, 437.0, 436.0, 436.0, 436.0, 435.0, 435.0, 435.0, 435.0, 434.0, 435.0, 435.0, 436.0, 436.0, 436.0, 437.0, 438.0, 438.0, 437.0, 438.0, 439.0, 439.0, 438.0, 438.0, 438.0, 438.0, 438.0, 439.0, 439.0, 439.0, 440.0, 440.0, 439.0, 440.0, 440.0, 439.0, 440.0, 439.0, 439.0, 440.0, 440.0, 439.0, 438.0, 438.0, 439.0, 437.0, 437.0, 437.0, 437.0, 438.0, 439.0, 438.0, 437.0, 438.0, 437.0, 437.0, 438.0, 439.0, 439.0, 440.0, 440.0, 439.0, 438.0, 438.0, 437.0, 438.0, 439.0, 438.0, 438.0, 437.0, 436.0, 437.0, 437.0, 438.0, 437.0, 439.0, 441.0, 440.0, 440.0, 440.0, 439.0, 439.0, 439.0, 439.0, 440.0, 441.0, 439.0, 439.0, 439.0, 438.0, 439.0, 439.0, 438.0, 439.0, 439.0, 438.0, 436.0, 437.0, 436.0, 436.0, 436.0, 436.0, 436.0, 437.0, 437.0, 437.0, 437.0, 437.0, 437.0, 439.0, 439.0, 442.0, 443.0, 442.0, 441.0, 439.0, 438.0, 437.0, 437.0, 437.0, 437.0, 438.0, 437.0, 438.0, 439.0, 439.0, 439.0, 439.0, 439.0, 439.0, 439.0, 439.0, 439.0, 439.0, 439.0, 438.0, 438.0, 438.0, 439.0, 438.0, 438.0, 438.0, 438.0, 438.0, 437.0, 437.0, 437.0, 438.0, 440.0, 441.0, 440.0, 439.0, 438.0, 440.0, 439.0, 439.0, 438.0, 438.0, 438.0, 437.0, 437.0, 437.0, 437.0, 438.0, 439.0, 440.0, 440.0, 440.0, 439.0, 438.0, 438.0, 438.0, 439.0, 439.0, 440.0, 440.0, 441.0, 439.0, 439.0, 440.0, 439.0, 438.0, 439.0, 438.0, 437.0, 437.0, 437.0, 440.0, 441.0, 440.0, 439.0, 440.0, 438.0, 438.0, 437.0, 438.0, 437.0, 438.0, 438.0, 438.0, 438.0, 440.0, 439.0, 439.0, 439.0, 439.0, 438.0, 437.0, 436.0, 437.0],
