{
  "AcquisitionMatrixPE": 104,
  "AcquisitionNumber": 1,
  "AcquisitionTime": "10:58:0.422500",
  "BandwidthPerPixelPhaseEncode": 43.054,
  "BaseResolution": 104,
  "CoilString": "C:E1_2",
  "ConversionSoftware": "dcm2niix",
  "ConversionSoftwareVersion": "v1.0.20191031",
  "DerivedVendorReportedEchoSpacing": 0.000669999,
  "DeviceSerialNumber": "18932",
  "DwellTime": 2.8e-06,
  "EchoTime": 0.02,
  "EffectiveEchoSpacing": 0.000223333,
  "FlipAngle": 30,
  "ImageComments": "Unaliased_MB2_PE2",
  "ImageOrientationPatientDICOM": [1, 2e-16, 0, -2e-16, 0.982613, -0.185667],
  "ImageType": [
    "ORIGINAL",
    "PRIMARY",
    "M",
    "MB",
    "ND",
    "MOSAIC"
],
  "ImagingFrequency": 297.229,
  "InPlanePhaseEncodingDirectionDICOM": "COL",
  "InstitutionAddress": "Richmond_Street_North_1151_London_409EF2_Ontario_CA_N6A_5B7",
  "InstitutionName": "Robarts_Reserch_Institute",
  "InstitutionalDepartmentName": "Department",
  "MRAcquisitionType": "2D",
  "MagneticFieldStrength": 6.98,
  "Manufacturer": "Siemens",
  "ManufacturersModelName": "Investigational_Device_7T",
  "Modality": "MR",
  "MultibandAccelerationFactor": 2,
  "ParallelReductionFactorInPlane": 3,
  "PartialFourier": 0.875,
  "PatientPosition": "HFS",
  "PercentPhaseFOV": 100,
  "PhaseEncodingDirection": "j-",
  "PhaseEncodingSteps": 91,
  "PhaseResolution": 1,
  "PixelBandwidth": 1717,
  "ProcedureStepDescription": "Diedrichsen_SeqRep4",
  "ProtocolName": "mbep2d_bold_mb2_p3_AP_2iso",
  "PulseSequenceDetails": "%CustomerSeq%_cmrr_mbep2d_bold",
  "ReceiveCoilName": "CFMM_8Tx32Rx",
  "ReconMatrixPE": 104,
  "RefLinesPE": 36,
  "RepetitionTime": 1,
  "ScanOptions": "PFP_FS",
  "ScanningSequence": "EP",
  "SequenceName": "epfid2d1_104",
  "SequenceVariant": "SK_SS",
  "SeriesDescription": "mbep2d_bold_mb2_p3_AP_2iso",
  "SeriesNumber": 32,
  "ShimSetting": [18, 2052, 32, 1280, -95, -108, 282, -116],
  "SliceThickness": 2,
  "SliceTiming": [0, 0.23, 0.4575, 0.685, 0.9125, 0.1375, 0.365, 0.595, 0.8225, 0.0475, 0.275, 0.5025, 0.73, 0.96, 0.1825, 0.4125, 0.64, 0.8675, 0.0925, 0.32, 0.5475, 0.7775, 0, 0.23, 0.4575, 0.685, 0.9125, 0.1375, 0.365, 0.595, 0.8225, 0.0475, 0.275, 0.5025, 0.73, 0.96, 0.1825, 0.4125, 0.64, 0.8675, 0.0925, 0.32, 0.5475, 0.7775],
  "SoftwareVersions": "syngo_MR_B17",
  "SpacingBetweenSlices": 2,
  "StationName": "MASTER",
  "TaskName": "dsp",
  "TotalReadoutTime": 0.0230033,
  "TxRefAmp": 120,
  "dcmmeta_affine": [
    [-2.0, -4.000000067449534e-16, 7.426664444028518e-17, 105.4527816772461],
    [-4.000000067449534e-16, 1.9652255773544312, -0.37133321166038513, -104.59367370605469],
    [0.0, 0.37133321166038513, 1.9652255773544312, -53.975868225097656],
    [0.0, 0.0, 0.0, 1.0]
],
  "dcmmeta_reorient_transform": [
    [0.0, -1.0, 0.0, 103.0],
    [1.0, 0.0, 0.0, 0.0],
    [0.0, 0.0, 1.0, 0.0],
    [0.0, 0.0, 0.0, 1.0]
],
  "dcmmeta_shape": [104, 104, 44, 330],
  "dcmmeta_slice_dim": 2,
  "dcmmeta_version": 0.6,
  "global": {
    "const": {
      "AcquisitionMatrix": [104, 0, 0, 104],
      "AngioFlag": "N",
      "BitsAllocated": 16,
      "BitsStored": 12,
      "Columns": 728,
      "EchoNumbers": 1,
      "EchoTime": 20.0,
      "EchoTrainLength": 1,
      "FlipAngle": 30.0,
      "HighBit": 11,
      "ImageOrientationPatient": [1.0, 2e-16, 0.0, -2e-16, 0.9826127972607, -0.1856666115905],
      "ImagePositionPatient": [-729.45278453827, -710.97494464142, 100.12742092345],
      "ImageType": [
        "ORIGINAL",
        "PRIMARY",
        "M",
        "MB",
        "ND",
        "MOSAIC"
],
      "ImagedNucleus": "1H",
      "ImagingFrequency": 297.228854,
      "InPlanePhaseEncodingDirection": "COL",
      "MRAcquisitionType": "2D",
      "MagneticFieldStrength": 6.98,
      "Manufacturer": "SIEMENS",
      "ManufacturerModelName": "Investigational_Device_7T",
      "Modality": "MR",
      "NumberOfAverages": 1.0,
      "NumberOfPhaseEncodingSteps": 91,
      "PercentPhaseFieldOfView": 100.0,
      "PercentSampling": 100.0,
      "PerformedProcedureStepStartTime": "094408.468000",
      "PhotometricInterpretation": "MONOCHROME2",
      "PixelBandwidth": 1717.0,
      "PixelRepresentation": 0,
      "PixelSpacing": [2.0, 2.0],
      "ProtocolName": "mbep2d_bold_mb2_p3_AP 2iso",
      "RepetitionTime": 1000.0,
      "Rows": 728,
      "SAR": 0.0,
      "SamplesPerPixel": 1,
      "ScanOptions": [
        "PFP",
        "FS"
],
      "ScanningSequence": "EP",
      "SequenceName": "epfid2d1_104",
      "SequenceVariant": [
        "SK",
        "SS"
],
      "SeriesDescription": "mbep2d_bold_mb2_p3_AP 2iso",
      "SeriesNumber": 32,
      "SeriesTime": "105825.343000",
      "SliceLocation": -33.617823741243,
      "SliceThickness": 2.0,
      "SmallestImagePixelValue": 0,
      "SoftwareVersions": "syngo MR B17",
      "SpacingBetweenSlices": 1.9999999843164,
      "SpecificCharacterSet": "ISO_IR 100",
      "StudyID": "1",
      "StudyTime": "094408.390000",
      "TransmitCoilName": "CFMM_8Tx32Rx",
      "VariableFlipAngleFlag": "N",
      "WindowCenterWidthExplanation": "Algo1",
      "dBdt": 0.0},
    "slices": {}
  },
  "time": {
    "samples": {
      "AcquisitionNumber": [1, 2, 3, 4, 5, 6, 7, 8, 9, 10, 11, 12, 13, 14, 15, 16, 17, 18, 19, 20, 21, 22, 23, 24, 25, 26, 27, 28, 29, 30, 31, 32, 33, 34, 35, 36, 37, 38, 39, 40, 41, 42, 43, 44, 45, 46, 47, 48, 49, 50, 51, 52, 53, 54, 55, 56, 57, 58, 59, 60, 61, 62, 63, 64, 65, 66, 67, 68, 69, 70, 71, 72, 73, 74, 75, 76, 77, 78, 79, 80, 81, 82, 83, 84, 85, 86, 87, 88, 89, 90, 91, 92, 93, 94, 95, 96, 97, 98, 99, 100, 101, 102, 103, 104, 105, 106, 107, 108, 109, 110, 111, 112, 113, 114, 115, 116, 117, 118, 119, 120, 121, 122, 123, 124, 125, 126, 127, 128, 129, 130, 131, 132, 133, 134, 135, 136, 137, 138, 139, 140, 141, 142, 143, 144, 145, 146, 147, 148, 149, 150, 151, 152, 153, 154, 155, 156, 157, 158, 159, 160, 161, 162, 163, 164, 165, 166, 167, 168, 169, 170, 171, 172, 173, 174, 175, 176, 177, 178, 179, 180, 181, 182, 183, 184, 185, 186, 187, 188, 189, 190, 191, 192, 193, 194, 195, 196, 197, 198, 199, 200, 201, 202, 203, 204, 205, 206, 207, 208, 209, 210, 211, 212, 213, 214, 215, 216, 217, 218, 219, 220, 221, 222, 223, 224, 225, 226, 227, 228, 229, 230, 231, 232, 233, 234, 235, 236, 237, 238, 239, 240, 241, 242, 243, 244, 245, 246, 247, 248, 249, 250, 251, 252, 253, 254, 255, 256, 257, 258, 259, 260, 261, 262, 263, 264, 265, 266, 267, 268, 269, 270, 271, 272, 273, 274, 275, 276, 277, 278, 279, 280, 281, 282, 283, 284, 285, 286, 287, 288, 289, 290, 291, 292, 293, 294, 295, 296, 297, 298, 299, 300, 301, 302, 303, 304, 305, 306, 307, 308, 309, 310, 311, 312, 313, 314, 315, 316, 317, 318, 319, 320, 321, 322, 323, 324, 325, 326, 327, 328, 329, 330],
      "AcquisitionTime": ["105800.422500", "105801.427500", "105802.432500", "105803.435000", "105804.440000", "105805.442500", "105806.447500", "105807.452500", "105808.455000", "105809.460000", "105810.462500", "105811.467500", "105812.472500", "105813.475000", "105814.480000", "105815.485000", "105816.487500", "105817.492500", "105818.495000", "105819.500000", "105820.505000", "105821.507500", "105822.512500", "105823.515000", "105824.520000", "105825.525000", "105826.527500", "105827.532500", "105828.535000", "105829.540000", "105830.545000", "105831.547500", "105832.552500", "105833.555000", "105834.560000", "105835.565000", "105836.567500", "105837.572500", "105838.575000", "105839.580000", "105840.585000", "105841.587500", "105842.592500", "105843.597500", "105844.600000", "105845.605000", "105846.607500", "105847.612500", "105848.617500", "105849.620000", "105850.625000", "105851.627500", "105852.632500", "105853.637500", "105854.640000", "105855.645000", "105856.647500", "105857.652500", "105858.657500", "105859.660000", "105900.665000", "105901.667500", "105902.672500", "105903.677500", "105904.680000", "105905.685000", "105906.687500", "105907.692500", "105908.697500", "105909.700000", "105910.705000", "105911.707500", "105912.712500", "105913.717500", "105914.720000", "105915.725000", "105916.730000", "105917.732500", "105918.737500", "105919.740000", "105920.745000", "105921.750000", "105922.752500", "105923.757500", "105924.760000", "105925.765000", "105926.770000", "105927.772500", "105928.777500", "105929.780000", "105930.785000", "105931.790000", "105932.792500", "105933.797500", "105934.800000", "105935.805000", "105936.810000", "105937.812500", "105938.817500", "105939.820000", "105940.825000", "105941.830000", "105942.832500", "105943.837500", "105944.840000", "105945.845000", "105946.850000", "105947.852500", "105948.857500", "105949.862500", "105950.865000", "105951.870000", "105952.872500", "105953.877500", "105954.882500", "105955.885000", "105956.890000", "105957.892500", "105958.897500", "105959.902500", "110000.905000", "110001.910000", "110002.912500", "110003.917500", "110004.922500", "110005.925000", "110006.930000", "110007.932500", "110008.937500", "110009.942500", "110010.945000", "110011.950000", "110012.952500", "110013.957500", "110014.962500", "110015.965000", "110016.970000", "110017.975000", "110018.977500", "110019.982500", "110020.985000", "110021.990000", "110022.995000", "110023.997500", "110025.002500", "110026.005000", "110027.010000", "110028.015000", "110029.017500", "110030.022500", "110031.025000", "110032.030000", "110033.035000", "110034.037500", "110035.042500", "110036.045000", "110037.050000", "110038.055000", "110039.057500", "110040.062500", "110041.065000", "110042.070000", "110043.075000", "110044.077500", "110045.082500", "110046.085000", "110047.090000", "110048.095000", "110049.097500", "110050.102500", "110051.107500", "110052.110000", "110053.115000", "110054.117500", "110055.122500", "110056.127500", "110057.130000", "110058.135000", "110059.137500", "110100.142500", "110101.147500", "110102.150000", "110103.155000", "110104.157500", "110105.162500", "110106.167500", "110107.170000", "110108.175000", "110109.177500", "110110.182500", "110111.187500", "110112.190000", "110113.195000", "110114.197500", "110115.202500", "110116.207500", "110117.210000", "110118.215000", "110119.217500", "110120.222500", "110121.227500", "110122.230000", "110123.235000", "110124.240000", "110125.242500", "110126.247500", "110127.250000", "110128.255000", "110129.260000", "110130.262500", "110131.267500", "110132.270000", "110133.275000", "110134.280000", "110135.282500", "110136.287500", "110137.290000", "110138.295000", "110139.300000", "110140.302500", "110141.307500", "110142.310000", "110143.315000", "110144.320000", "110145.322500", "110146.327500", "110147.330000", "110148.335000", "110149.340000", "110150.342500", "110151.347500", "110152.352500", "110153.355000", "110154.360000", "110155.362500", "110156.367500", "110157.372500", "110158.375000", "110159.380000", "110200.382500", "110201.387500", "110202.392500", "110203.395000", "110204.400000", "110205.402500", "110206.407500", "110207.412500", "110208.415000", "110209.420000", "110210.422500", "110211.427500", "110212.432500", "110213.435000", "110214.440000", "110215.442500", "110216.447500", "110217.452500", "110218.455000", "110219.460000", "110220.462500", "110221.467500", "110222.472500", "110223.475000", "110224.480000", "110225.485000", "110226.487500", "110227.492500", "110228.495000", "110229.500000", "110230.505000", "110231.507500", "110232.512500", "110233.515000", "110234.520000", "110235.525000", "110236.527500", "110237.532500", "110238.535000", "110239.540000", "110240.545000", "110241.547500", "110242.552500", "110243.555000", "110244.560000", "110245.565000", "110246.567500", "110247.572500", "110248.575000", "110249.580000", "110250.585000", "110251.587500", "110252.592500", "110253.597500", "110254.600000", "110255.605000", "110256.607500", "110257.612500", "110258.617500", "110259.620000", "110300.625000", "110301.627500", "110302.632500", "110303.637500", "110304.640000", "110305.645000", "110306.647500", "110307.652500", "110308.657500", "110309.660000", "110310.665000", "110311.667500", "110312.672500", "110313.677500", "110314.680000", "110315.685000", "110316.687500", "110317.692500", "110318.697500", "110319.700000", "110320.705000", "110321.707500", "110322.712500", "110323.717500", "110324.720000", "110325.725000", "110326.730000", "110327.732500", "110328.737500", "110329.740000", "110330.745000"],
      "ContentTime": ["105825.343000", "105825.343000", "105825.343000", "105825.359000", "105825.359000", "105825.359000", "105825.359000", "105825.359000", "105825.359000", "105825.359000", "105825.375000", "105825.375000", "105825.375000", "105825.375000", "105825.375000", "105825.375000", "105825.375000", "105825.375000", "105825.390000", "105825.390000", "105825.390000", "105825.390000", "105825.390000", "105845.312000", "105845.312000", "105845.312000", "105845.312000", "105845.312000", "105845.328000", "105845.328000", "105845.328000", "105845.328000", "105845.328000", "105845.328000", "105845.343000", "105845.343000", "105845.343000", "105845.343000", "105845.343000", "105845.343000", "105845.359000", "105845.359000", "105845.359000", "105905.312000", "105905.312000", "105905.312000", "105905.312000", "105905.328000", "105905.328000", "105905.328000", "105905.328000", "105905.328000", "105905.328000", "105905.328000", "105905.343000", "105905.343000", "105905.343000", "105905.343000", "105905.343000", "105905.343000", "105905.343000", "105905.359000", "105905.359000", "105925.312000", "105925.312000", "105925.312000", "105925.312000", "105925.312000", "105925.328000", "105925.328000", "105925.328000", "105925.328000", "105925.328000", "105925.328000", "105925.343000", "105925.343000", "105925.343000", "105925.343000", "105925.343000", "105925.343000", "105925.359000", "105925.359000", "105925.359000", "105945.312000", "105945.312000", "105945.312000", "105945.312000", "105945.312000", "105945.328000", "105945.328000", "105945.328000", "105945.328000", "105945.328000", "105945.343000", "105945.343000", "105945.343000", "105945.343000", "105945.343000", "105945.343000", "105945.343000", "105945.343000", "105945.359000", "105945.359000", "110005.312000", "110005.312000", "110005.312000", "110005.328000", "110005.328000", "110005.328000", "110005.328000", "110005.328000", "110005.328000", "110005.343000", "110005.343000", "110005.343000", "110005.343000", "110005.343000", "110005.343000", "110005.359000", "110005.359000", "110005.359000", "110005.359000", "110005.359000", "110025.312000", "110025.312000", "110025.312000", "110025.312000", "110025.312000", "110025.328000", "110025.328000", "110025.328000", "110025.328000", "110025.328000", "110025.343000", "110025.343000", "110025.343000", "110025.343000", "110025.343000", "110025.343000", "110025.343000", "110025.359000", "110025.359000", "110025.359000", "110045.312000", "110045.312000", "110045.312000", "110045.312000", "110045.328000", "110045.328000", "110045.328000", "110045.328000", "110045.328000", "110045.328000", "110045.328000", "110045.343000", "110045.343000", "110045.343000", "110045.343000", "110045.343000", "110045.343000", "110045.343000", "110045.343000", "110045.359000", "110105.312000", "110105.312000", "110105.312000", "110105.328000", "110105.328000", "110105.328000", "110105.328000", "110105.328000", "110105.328000", "110105.343000", "110105.343000", "110105.343000", "110105.343000", "110105.359000", "110105.359000", "110105.359000", "110105.359000", "110105.359000", "110105.359000", "110105.359000", "110125.312000", "110125.312000", "110125.328000", "110125.328000", "110125.328000", "110125.328000", "110125.328000", "110125.328000", "110125.328000", "110125.343000", "110125.343000", "110125.343000", "110125.343000", "110125.343000", "110125.343000", "110125.343000", "110125.359000", "110125.359000", "110125.359000", "110125.359000", "110145.312000", "110145.312000", "110145.312000", "110145.312000", "110145.312000", "110145.328000", "110145.328000", "110145.328000", "110145.328000", "110145.328000", "110145.328000", "110145.328000", "110145.328000", "110145.343000", "110145.343000", "110145.343000", "110145.343000", "110145.343000", "110145.343000", "110145.343000", "110205.312000", "110205.312000", "110205.312000", "110205.312000", "110205.312000", "110205.328000", "110205.328000", "110205.328000", "110205.328000", "110205.328000", "110205.328000", "110205.328000", "110205.328000", "110205.343000", "110205.343000", "110205.343000", "110205.343000", "110205.343000", "110205.343000", "110205.343000", "110225.312000", "110225.312000", "110225.312000", "110225.312000", "110225.312000", "110225.328000", "110225.328000", "110225.328000", "110225.328000", "110225.328000", "110225.328000", "110225.328000", "110225.328000", "110225.343000", "110225.343000", "110225.343000", "110225.343000", "110225.343000", "110225.343000", "110225.343000", "110245.312000", "110245.312000", "110245.312000", "110245.312000", "110245.312000", "110245.328000", "110245.328000", "110245.328000", "110245.328000", "110245.328000", "110245.328000", "110245.328000", "110245.328000", "110245.343000", "110245.343000", "110245.343000", "110245.343000", "110245.343000", "110245.343000", "110245.343000", "110305.312000", "110305.312000", "110305.312000", "110305.312000", "110305.312000", "110305.328000", "110305.328000", "110305.328000", "110305.328000", "110305.328000", "110305.343000", "110305.343000", "110305.343000", "110305.343000", "110305.343000", "110305.343000", "110305.343000", "110305.359000", "110305.359000", "110305.359000", "110325.312000", "110325.312000", "110325.312000", "110325.312000", "110325.312000", "110325.328000", "110325.328000", "110325.328000", "110325.328000", "110325.328000", "110325.328000", "110325.328000", "110325.328000", "110325.343000", "110325.343000", "110325.343000", "110325.343000", "110325.343000", "110325.343000", "110325.343000", "110336.500000", "110336.500000", "110336.500000", "110336.500000", "110336.500000", "110336.500000", "110336.500000"],
      "InstanceCreationTime": ["105825.343000", "105825.343000", "105825.343000", "105825.359000", "105825.359000", "105825.359000", "105825.359000", "105825.359000", "105825.359000", "105825.359000", "105825.375000", "105825.375000", "105825.375000", "105825.375000", "105825.375000", "105825.375000", "105825.375000", "105825.375000", "105825.390000", "105825.390000", "105825.390000", "105825.390000", "105825.390000", "105845.312000", "105845.312000", "105845.312000", "105845.312000", "105845.312000", "105845.328000", "105845.328000", "105845.328000", "105845.328000", "105845.328000", "105845.328000", "105845.343000", "105845.343000", "105845.343000", "105845.343000", "105845.343000", "105845.343000", "105845.359000", "105845.359000", "105845.359000", "105905.312000", "105905.312000", "105905.312000", "105905.312000", "105905.328000", "105905.328000", "105905.328000", "105905.328000", "105905.328000", "105905.328000", "105905.328000", "105905.343000", "105905.343000", "105905.343000", "105905.343000", "105905.343000", "105905.343000", "105905.343000", "105905.359000", "105905.359000", "105925.312000", "105925.312000", "105925.312000", "105925.312000", "105925.312000", "105925.328000", "105925.328000", "105925.328000", "105925.328000", "105925.328000", "105925.328000", "105925.343000", "105925.343000", "105925.343000", "105925.343000", "105925.343000", "105925.343000", "105925.359000", "105925.359000", "105925.359000", "105945.312000", "105945.312000", "105945.312000", "105945.312000", "105945.312000", "105945.328000", "105945.328000", "105945.328000", "105945.328000", "105945.328000", "105945.343000", "105945.343000", "105945.343000", "105945.343000", "105945.343000", "105945.343000", "105945.343000", "105945.343000", "105945.359000", "105945.359000", "110005.312000", "110005.312000", "110005.312000", "110005.328000", "110005.328000", "110005.328000", "110005.328000", "110005.328000", "110005.328000", "110005.343000", "110005.343000", "110005.343000", "110005.343000", "110005.343000", "110005.343000", "110005.359000", "110005.359000", "110005.359000", "110005.359000", "110005.359000", "110025.312000", "110025.312000", "110025.312000", "110025.312000", "110025.312000", "110025.328000", "110025.328000", "110025.328000", "110025.328000", "110025.328000", "110025.343000", "110025.343000", "110025.343000", "110025.343000", "110025.343000", "110025.343000", "110025.343000", "110025.359000", "110025.359000", "110025.359000", "110045.312000", "110045.312000", "110045.312000", "110045.312000", "110045.328000", "110045.328000", "110045.328000", "110045.328000", "110045.328000", "110045.328000", "110045.328000", "110045.343000", "110045.343000", "110045.343000", "110045.343000", "110045.343000", "110045.343000", "110045.343000", "110045.343000", "110045.359000", "110105.312000", "110105.312000", "110105.312000", "110105.328000", "110105.328000", "110105.328000", "110105.328000", "110105.328000", "110105.328000", "110105.343000", "110105.343000", "110105.343000", "110105.343000", "110105.359000", "110105.359000", "110105.359000", "110105.359000", "110105.359000", "110105.359000", "110105.359000", "110125.312000", "110125.312000", "110125.328000", "110125.328000", "110125.328000", "110125.328000", "110125.328000", "110125.328000", "110125.328000", "110125.343000", "110125.343000", "110125.343000", "110125.343000", "110125.343000", "110125.343000", "110125.343000", "110125.359000", "110125.359000", "110125.359000", "110125.359000", "110145.312000", "110145.312000", "110145.312000", "110145.312000", "110145.312000", "110145.328000", "110145.328000", "110145.328000", "110145.328000", "110145.328000", "110145.328000", "110145.328000", "110145.328000", "110145.343000", "110145.343000", "110145.343000", "110145.343000", "110145.343000", "110145.343000", "110145.343000", "110205.312000", "110205.312000", "110205.312000", "110205.312000", "110205.312000", "110205.328000", "110205.328000", "110205.328000", "110205.328000", "110205.328000", "110205.328000", "110205.328000", "110205.328000", "110205.343000", "110205.343000", "110205.343000", "110205.343000", "110205.343000", "110205.343000", "110205.343000", "110225.312000", "110225.312000", "110225.312000", "110225.312000", "110225.312000", "110225.328000", "110225.328000", "110225.328000", "110225.328000", "110225.328000", "110225.328000", "110225.328000", "110225.328000", "110225.343000", "110225.343000", "110225.343000", "110225.343000", "110225.343000", "110225.343000", "110225.343000", "110245.312000", "110245.312000", "110245.312000", "110245.312000", "110245.312000", "110245.328000", "110245.328000", "110245.328000", "110245.328000", "110245.328000", "110245.328000", "110245.328000", "110245.328000", "110245.343000", "110245.343000", "110245.343000", "110245.343000", "110245.343000", "110245.343000", "110245.343000", "110305.312000", "110305.312000", "110305.312000", "110305.312000", "110305.312000", "110305.328000", "110305.328000", "110305.328000", "110305.328000", "110305.328000", "110305.343000", "110305.343000", "110305.343000", "110305.343000", "110305.343000", "110305.343000", "110305.343000", "110305.359000", "110305.359000", "110305.359000", "110325.312000", "110325.312000", "110325.312000", "110325.312000", "110325.312000", "110325.328000", "110325.328000", "110325.328000", "110325.328000", "110325.328000", "110325.328000", "110325.328000", "110325.328000", "110325.343000", "110325.343000", "110325.343000", "110325.343000", "110325.343000", "110325.343000", "110325.343000", "110336.500000", "110336.500000", "110336.500000", "110336.500000", "110336.500000", "110336.500000", "110336.500000"],
      "InstanceNumber": [1, 2, 3, 4, 5, 6, 7, 8, 9, 10, 11, 12, 13, 14, 15, 16, 17, 18, 19, 20, 21, 22, 23, 24, 25, 26, 27, 28, 29, 30, 31, 32, 33, 34, 35, 36, 37, 38, 39, 40, 41, 42, 43, 44, 45, 46, 47, 48, 49, 50, 51, 52, 53, 54, 55, 56, 57, 58, 59, 60, 61, 62, 63, 64, 65, 66, 67, 68, 69, 70, 71, 72, 73, 74, 75, 76, 77, 78, 79, 80, 81, 82, 83, 84, 85, 86, 87, 88, 89, 90, 91, 92, 93, 94, 95, 96, 97, 98, 99, 100, 101, 102, 103, 104, 105, 106, 107, 108, 109, 110, 111, 112, 113, 114, 115, 116, 117, 118, 119, 120, 121, 122, 123, 124, 125, 126, 127, 128, 129, 130, 131, 132, 133, 134, 135, 136, 137, 138, 139, 140, 141, 142, 143, 144, 145, 146, 147, 148, 149, 150, 151, 152, 153, 154, 155, 156, 157, 158, 159, 160, 161, 162, 163, 164, 165, 166, 167, 168, 169, 170, 171, 172, 173, 174, 175, 176, 177, 178, 179, 180, 181, 182, 183, 184, 185, 186, 187, 188, 189, 190, 191, 192, 193, 194, 195, 196, 197, 198, 199, 200, 201, 202, 203, 204, 205, 206, 207, 208, 209, 210, 211, 212, 213, 214, 215, 216, 217, 218, 219, 220, 221, 222, 223, 224, 225, 226, 227, 228, 229, 230, 231, 232, 233, 234, 235, 236, 237, 238, 239, 240, 241, 242, 243, 244, 245, 246, 247, 248, 249, 250, 251, 252, 253, 254, 255, 256, 257, 258, 259, 260, 261, 262, 263, 264, 265, 266, 267, 268, 269, 270, 271, 272, 273, 274, 275, 276, 277, 278, 279, 280, 281, 282, 283, 284, 285, 286, 287, 288, 289, 290, 291, 292, 293, 294, 295, 296, 297, 298, 299, 300, 301, 302, 303, 304, 305, 306, 307, 308, 309, 310, 311, 312, 313, 314, 315, 316, 317, 318, 319, 320, 321, 322, 323, 324, 325, 326, 327, 328, 329, 330],
      "LargestImagePixelValue": [2837, 2748, 2763, 2665, 2803, 2719, 2751, 2701, 2688, 2699, 2670, 2666, 2677, 2758, 2690, 2693, 2645, 2686, 2679, 2698, 2669, 2677, 2705, 2714, 2645, 2635, 2721, 2683, 2663, 2689, 2697, 2653, 2649, 2686, 2708, 2713, 2696, 2696, 2661, 2662, 2631, 2638, 2651, 2682, 2677, 2684, 2680, 2692, 2676, 2687, 2649, 2636, 2597, 2653, 2662, 2695, 2648, 2629, 2613, 2664, 2675, 2591, 2640, 2589, 2659, 2730, 2701, 2633, 2681, 2637, 2662, 2668, 2652, 2687, 2691, 2716, 2729, 2684, 2684, 2750, 2674, 2620, 2615, 2705, 2792, 2726, 2672, 2668, 2689, 2685, 2640, 2671, 2698, 2715, 2734, 2667, 2672, 2668, 2615, 2651, 2681, 2732, 2662, 2710, 2641, 2658, 2669, 2718, 2628, 2573, 2646, 2634, 2644, 2616, 2624, 2672, 2646, 2694, 2641, 2679, 2652, 2637, 2637, 2669, 2713, 2665, 2648, 2724, 2707, 2699, 2818, 2754, 2762, 2815, 2780, 2729, 2720, 2824, 2729, 2703, 2755, 2738, 2704, 2782, 2733, 2812, 2795, 2837, 2734, 2817, 2783, 2699, 2725, 2708, 2752, 2707, 2756, 2770, 2776, 2798, 2777, 2800, 2717, 2746, 2726, 2709, 2804, 2686, 2734, 2726, 2761, 2751, 2747, 2784, 2746, 2813, 2750, 2715, 2720, 2763, 2749, 2752, 2723, 2811, 2772, 2752, 2836, 2780, 2808, 2768, 2764, 2824, 2770, 2775, 2764, 2791, 2798, 2787, 2728, 2768, 2797, 2739, 2730, 2723, 2792, 2814, 2834, 2755, 2779, 2805, 2713, 2786, 2752, 2731, 2688, 2757, 2770, 2935, 2870, 2904, 2953, 2941, 2918, 2962, 3042, 2954, 2961, 3061, 3021, 3035, 3069, 3008, 2925, 3025, 3089, 3047, 3040, 3078, 2986, 2999, 2947, 2965, 2969, 2941, 3016, 3029, 2919, 2962, 2972, 2956, 2985, 3075, 3073, 3020, 3010, 3057, 3072, 3023, 3085, 2984, 2991, 3098, 3000, 3020, 2958, 3001, 2996, 3006, 2995, 2957, 2928, 2929, 2959, 2926, 2998, 2927, 3034, 2964, 2957, 3013, 2762, 2809, 2842, 2959, 2854, 2850, 2863, 2891, 2894, 2995, 2878, 2983, 3001, 2925, 2967, 2934, 2916, 2951, 3022, 3014, 2938, 3012, 2823, 2922, 2968, 2829, 2944, 2955, 3016, 3014, 2971, 3018, 2993, 3038, 3052, 2986, 3017, 2896, 3024, 2982, 2937, 2935, 3009, 2959, 2966, 2983, 2991, 2987, 3028, 2941],
      "WindowCenter": [444.0, 442.0, 441.0, 441.0, 441.0, 440.0, 440.0, 440.0, 440.0, 440.0, 441.0, 441.0, 441.0, 442.0, 441.0, 442.0, 442.0, 444.0, 443.0, 442.0, 442.0, 440.0, 440.0, 441.0, 440.0, 441.0, 442.0, 441.0, 441.0, 441.0, 439.0, 438.0, 438.0, 438.0, 438.0, 439.0, 440.0, 439.0, 440.0, 440.0, 438.0, 438.0, 438.0, 438.0, 437.0, 437.0, 437.0, 438.0, 438.0, 438.0, 438.0, 438.0, 437.0, 436.0, 437.0, 437.0, 437.0, 437.0, 438.0, 438.0, 439.0, 439.0, 439.0, 437.0, 438.0, 440.0, 441.0, 442.0, 442.0, 442.0, 442.0, 441.0, 440.0, 439.0, 439.0, 440.0, 442.0, 442.0, 441.0, 441.0, 440.0, 439.0, 439.0, 440.0, 440.0, 441.0, 441.0, 442.0, 442.0, 442.0, 441.0, 440.0, 440.0, 440.0, 439.0, 439.0, 439.0, 439.0, 438.0, 439.0, 439.0, 441.0, 441.0, 441.0, 440.0, 440.0, 440.0, 440.0, 439.0, 438.0, 437.0, 437.0, 439.0, 438.0, 439.0, 439.0, 440.0, 440.0, 440.0, 440.0, 440.0, 440.0, 439.0, 439.0, 439.0, 439.0, 439.0, 441.0, 441.0, 442.0, 442.0, 442.0, 442.0, 441.0, 440.0, 439.0, 439.0, 440.0, 439.0, 440.0, 441.0, 439.0, 439.0, 441.0, 440.0, 441.0, 441.0, 440.0, 439.0, 440.0, 441.0, 440.0, 440.0, 440.0, 440.0, 438.0, 438.0, 438.0, 438.0, 439.0, 439.0, 439.0, 439.0, 439.0, 439.0, 438.0, 440.0, 439.0, 440.0, 440.0, 440.0, 440.0, 439.0, 439.0, 438.0, 439.0, 439.0, 439.0, 439.0, 439.0, 440.0, 440.0, 439.0, 440.0, 439.0, 439.0, 439.0, 439.0, 439.0, 439.0, 439.0, 439.0, 439.0, 440.0, 439.0, 440.0, 440.0, 440.0, 438.0, 438.0, 439.0, 439.0, 439.0, 440.0, 440.0, 440.0, 441.0, 440.0, 440.0, 440.0, 440.0, 441.0, 441.0, 442.0, 445.0, 445.0, 442.0, 442.0, 443.0, 444.0, 443.0, 441.0, 440.0, 439.0, 439.0, 437.0, 435.0, 435.0, 433.0, 433.0, 433.0, 432.0, 432.0, 434.0, 435.0, 434.0, 437.0, 440.0, 440.0, 441.0, 440.0, 440.0, 440.0, 439.0, 440.0, 441.0, 440.0, 440.0, 441.0, 440.0, 440.0, 442.0, 442.0, 442.0, 442.0, 443.0, 443.0, 443.0, 443.0, 442.0, 443.0, 445.0, 445.0, 447.0, 445.0, 445.0, 446.0, 445.0, 446.0, 446.0, 444.0, 444.0, 444.0, 443.0, 444.0, 443.0, 444.0, 443.0, 444.0, 445.0, 444.0, 444.0, 443.0, 443.0, 442.0, 442.0, 441.0, 441.0, 442.0, 442.0, 442.0, 443.0, 443.0, 442.0, 443.0, 443.0, 443.0, 443.0, 442.0, 443.0, 441.0, 442.0, 442.0, 442.0, 443.0, 442.0, 443.0, 442.0, 442.0, 441.0, 440.0, 441.0, 440.0, 440.0, 440.0, 440.0, 441.0, 440.0, 442.0, 442.0, 441.0, 441.0, 442.0, 441.0, 441.0, 441.0, 441.0, 441.0, 442.0, 441.0],
