{
  "AcquisitionMatrixPE": 104,
  "AcquisitionNumber": 1,
  "AcquisitionTime": "13:53:21.750000",
  "BandwidthPerPixelPhaseEncode": 43.054,
  "BaseResolution": 104,
  "CoilString": "C:E1_2",
  "ConversionSoftware": "dcm2niix",
  "ConversionSoftwareVersion": "v1.0.20191031",
  "DerivedVendorReportedEchoSpacing": 0.000669999,
  "DeviceSerialNumber": "18932",
  "DwellTime": 2.8e-06,
  "EchoTime": 0.02,
  "EffectiveEchoSpacing": 0.000223333,
  "FlipAngle": 30,
  "ImageComments": "Unaliased_MB2_PE2",
  "ImageOrientationPatientDICOM": [1, 0, 0, 0, 0.999048, -0.0436194],
  "ImageType": [
    "ORIGINAL",
    "PRIMARY",
    "M",
    "MB",
    "ND",
    "MOSAIC"
],
  "ImagingFrequency": 297.229,
  "InPlanePhaseEncodingDirectionDICOM": "COL",
  "InstitutionAddress": "Richmond_Street_North_1151_London_409EF2_Ontario_CA_N6A_5B7",
  "InstitutionName": "Robarts_Reserch_Institute",
  "InstitutionalDepartmentName": "Department",
  "MRAcquisitionType": "2D",
  "MagneticFieldStrength": 6.98,
  "Manufacturer": "Siemens",
  "ManufacturersModelName": "Investigational_Device_7T",
  "Modality": "MR",
  "MultibandAccelerationFactor": 2,
  "ParallelReductionFactorInPlane": 3,
  "PartialFourier": 0.875,
  "PatientPosition": "HFS",
  "PercentPhaseFOV": 100,
  "PhaseEncodingDirection": "j-",
  "PhaseEncodingSteps": 91,
  "PhaseResolution": 1,
  "PixelBandwidth": 1717,
  "ProcedureStepDescription": "Diedrichsen_SeqRep4",
  "ProtocolName": "mbep2d_bold_mb2_p3_AP_2iso",
  "PulseSequenceDetails": "%CustomerSeq%_cmrr_mbep2d_bold",
  "ReceiveCoilName": "CFMM_8Tx32Rx",
  "ReconMatrixPE": 104,
  "RefLinesPE": 36,
  "RepetitionTime": 1,
  "ScanOptions": "PFP_FS",
  "ScanningSequence": "EP",
  "SequenceName": "epfid2d1_104",
  "SequenceVariant": "SK_SS",
  "SeriesDescription": "mbep2d_bold_mb2_p3_AP_2iso",
  "SeriesNumber": 14,
  "ShimSetting": [30, 2004, 104, 1434, 84, 146, 137, -93],
  "SliceThickness": 2,
  "SliceTiming": [0, 0.2275, 0.455, 0.6825, 0.9125, 0.135, 0.365, 0.5925, 0.82, 0.045, 0.2725, 0.5, 0.73, 0.9575, 0.1825, 0.41, 0.6375, 0.865, 0.09, 0.3175, 0.5475, 0.775, 0, 0.2275, 0.455, 0.6825, 0.9125, 0.135, 0.365, 0.5925, 0.82, 0.045, 0.2725, 0.5, 0.73, 0.9575, 0.1825, 0.41, 0.6375, 0.865, 0.09, 0.3175, 0.5475, 0.775],
  "SoftwareVersions": "syngo_MR_B17",
  "SpacingBetweenSlices": 2,
  "StationName": "MASTER",
  "TaskName": "dsp",
  "TotalReadoutTime": 0.0230033,
  "TxRefAmp": 120,
  "dcmmeta_affine": [
    [-2.0, 0.0, 0.0, 108.35835266113281],
    [0.0, 1.9980964660644531, -0.08723877370357513, -102.20863342285156],
    [0.0, 0.08723877370357513, 1.9980963468551636, -18.40200424194336],
    [0.0, 0.0, 0.0, 1.0]
],
  "dcmmeta_reorient_transform": [
    [0.0, -1.0, 0.0, 103.0],
    [1.0, 0.0, 0.0, 0.0],
    [0.0, 0.0, 1.0, 0.0],
    [0.0, 0.0, 0.0, 1.0]
],
  "dcmmeta_shape": [104, 104, 44, 330],
  "dcmmeta_slice_dim": 2,
  "dcmmeta_version": 0.6,
  "global": {
    "const": {
      "AcquisitionMatrix": [104, 0, 0, 104],
      "AngioFlag": "N",
      "BitsAllocated": 16,
      "BitsStored": 12,
      "Columns": 728,
      "EchoNumbers": 1,
      "EchoTime": 20.0,
      "EchoTrainLength": 1,
      "FlipAngle": 30.0,
      "HighBit": 11,
      "ImageOrientationPatient": [1.0, 0.0, 0.0, 0.0, 0.99904822159351, -0.0436193870985],
      "ImagePositionPatient": [-732.35835361481, -727.0013941103, 17.802086354127],
      "ImageType": [
        "ORIGINAL",
        "PRIMARY",
        "M",
        "MB",
        "ND",
        "MOSAIC"
],
      "ImagedNucleus": "1H",
      "ImagingFrequency": 297.22877,
      "InPlanePhaseEncodingDirection": "COL",
      "MRAcquisitionType": "2D",
      "MagneticFieldStrength": 6.98,
      "Manufacturer": "SIEMENS",
      "ManufacturerModelName": "Investigational_Device_7T",
      "Modality": "MR",
      "NumberOfAverages": 1.0,
      "NumberOfPhaseEncodingSteps": 91,
      "PercentPhaseFieldOfView": 100.0,
      "PercentSampling": 100.0,
      "PerformedProcedureStepStartTime": "132553.421000",
      "PhotometricInterpretation": "MONOCHROME2",
      "PixelBandwidth": 1717.0,
      "PixelRepresentation": 0,
      "PixelSpacing": [2.0, 2.0],
      "ProtocolName": "mbep2d_bold_mb2_p3_AP 2iso",
      "RepetitionTime": 1000.0,
      "Rows": 728,
      "SAR": 0.0,
      "SamplesPerPixel": 1,
      "ScanOptions": [
        "PFP",
        "FS"
],
      "ScanningSequence": "EP",
      "SequenceName": "epfid2d1_104",
      "SequenceVariant": [
        "SK",
        "SS"
],
      "SeriesDescription": "mbep2d_bold_mb2_p3_AP 2iso",
      "SeriesNumber": 14,
      "SeriesTime": "135355.468000",
      "SliceLocation": -13.926212518134,
      "SliceThickness": 2.0,
      "SmallestImagePixelValue": 0,
      "SoftwareVersions": "syngo MR B17",
      "SpacingBetweenSlices": 1.9999999344314,
      "SpecificCharacterSet": "ISO_IR 100",
      "StudyID": "1",
      "StudyTime": "132553.359000",
      "TransmitCoilName": "CFMM_8Tx32Rx",
      "VariableFlipAngleFlag": "N",
      "WindowCenterWidthExplanation": "Algo1",
      "dBdt": 0.0},
    "slices": {}
  },
  "time": {
    "samples": {
      "AcquisitionNumber": [1, 2, 3, 4, 5, 6, 7, 8, 9, 10, 11, 12, 13, 14, 15, 16, 17, 18, 19, 20, 21, 22, 23, 24, 25, 26, 27, 28, 29, 30, 31, 32, 33, 34, 35, 36, 37, 38, 39, 40, 41, 42, 43, 44, 45, 46, 47, 48, 49, 50, 51, 52, 53, 54, 55, 56, 57, 58, 59, 60, 61, 62, 63, 64, 65, 66, 67, 68, 69, 70, 71, 72, 73, 74, 75, 76, 77, 78, 79, 80, 81, 82, 83, 84, 85, 86, 87, 88, 89, 90, 91, 92, 93, 94, 95, 96, 97, 98, 99, 100, 101, 102, 103, 104, 105, 106, 107, 108, 109, 110, 111, 112, 113, 114, 115, 116, 117, 118, 119, 120, 121, 122, 123, 124, 125, 126, 127, 128, 129, 130, 131, 132, 133, 134, 135, 136, 137, 138, 139, 140, 141, 142, 143, 144, 145, 146, 147, 148, 149, 150, 151, 152, 153, 154, 155, 156, 157, 158, 159, 160, 161, 162, 163, 164, 165, 166, 167, 168, 169, 170, 171, 172, 173, 174, 175, 176, 177, 178, 179, 180, 181, 182, 183, 184, 185, 186, 187, 188, 189, 190, 191, 192, 193, 194, 195, 196, 197, 198, 199, 200, 201, 202, 203, 204, 205, 206, 207, 208, 209, 210, 211, 212, 213, 214, 215, 216, 217, 218, 219, 220, 221, 222, 223, 224, 225, 226, 227, 228, 229, 230, 231, 232, 233, 234, 235, 236, 237, 238, 239, 240, 241, 242, 243, 244, 245, 246, 247, 248, 249, 250, 251, 252, 253, 254, 255, 256, 257, 258, 259, 260, 261, 262, 263, 264, 265, 266, 267, 268, 269, 270, 271, 272, 273, 274, 275, 276, 277, 278, 279, 280, 281, 282, 283, 284, 285, 286, 287, 288, 289, 290, 291, 292, 293, 294, 295, 296, 297, 298, 299, 300, 301, 302, 303, 304, 305, 306, 307, 308, 309, 310, 311, 312, 313, 314, 315, 316, 317, 318, 319, 320, 321, 322, 323, 324, 325, 326, 327, 328, 329, 330],
      "AcquisitionTime": ["135321.750000", "135322.752500", "135323.757500", "135324.762500", "135325.765000", "135326.770000", "135327.772500", "135328.777500", "135329.782500", "135330.785000", "135331.790000", "135332.792500", "135333.797500", "135334.802500", "135335.805000", "135336.810000", "135337.812500", "135338.817500", "135339.822500", "135340.825000", "135341.830000", "135342.832500", "135343.837500", "135344.842500", "135345.845000", "135346.850000", "135347.852500", "135348.857500", "135349.862500", "135350.865000", "135351.870000", "135352.872500", "135353.877500", "135354.882500", "135355.885000", "135356.890000", "135357.895000", "135358.897500", "135359.902500", "135400.905000", "135401.910000", "135402.915000", "135403.917500", "135404.922500", "135405.925000", "135406.930000", "135407.935000", "135408.937500", "135409.942500", "135410.945000", "135411.950000", "135412.955000", "135413.957500", "135414.962500", "135415.965000", "135416.970000", "135417.975000", "135418.977500", "135419.982500", "135420.985000", "135421.990000", "135422.995000", "135423.997500", "135425.002500", "135426.007500", "135427.010000", "135428.015000", "135429.017500", "135430.022500", "135431.027500", "135432.030000", "135433.035000", "135434.037500", "135435.042500", "135436.047500", "135437.050000", "135438.055000", "135439.057500", "135440.062500", "135441.067500", "135442.070000", "135443.075000", "135444.077500", "135445.082500", "135446.087500", "135447.090000", "135448.095000", "135449.097500", "135450.102500", "135451.107500", "135452.110000", "135453.115000", "135454.117500", "135455.122500", "135456.127500", "135457.130000", "135458.135000", "135459.140000", "135500.142500", "135501.147500", "135502.150000", "135503.155000", "135504.160000", "135505.162500", "135506.167500", "135507.170000", "135508.175000", "135509.180000", "135510.182500", "135511.187500", "135512.190000", "135513.195000", "135514.200000", "135515.202500", "135516.207500", "135517.210000", "135518.215000", "135519.220000", "135520.222500", "135521.227500", "135522.230000", "135523.235000", "135524.240000", "135525.242500", "135526.247500", "135527.250000", "135528.255000", "135529.260000", "135530.262500", "135531.267500", "135532.272500", "135533.275000", "135534.280000", "135535.282500", "135536.287500", "135537.292500", "135538.295000", "135539.300000", "135540.302500", "135541.307500", "135542.312500", "135543.315000", "135544.320000", "135545.322500", "135546.327500", "135547.332500", "135548.335000", "135549.340000", "135550.342500", "135551.347500", "135552.352500", "135553.355000", "135554.360000", "135555.362500", "135556.367500", "135557.372500", "135558.375000", "135559.380000", "135600.385000", "135601.387500", "135602.392500", "135603.395000", "135604.400000", "135605.405000", "135606.407500", "135607.412500", "135608.415000", "135609.420000", "135610.425000", "135611.427500", "135612.432500", "135613.435000", "135614.440000", "135615.445000", "135616.447500", "135617.452500", "135618.455000", "135619.460000", "135620.465000", "135621.467500", "135622.472500", "135623.475000", "135624.480000", "135625.485000", "135626.487500", "135627.492500", "135628.495000", "135629.500000", "135630.505000", "135631.507500", "135632.512500", "135633.517500", "135634.520000", "135635.525000", "135636.527500", "135637.532500", "135638.537500", "135639.540000", "135640.545000", "135641.547500", "135642.552500", "135643.557500", "135644.560000", "135645.565000", "135646.567500", "135647.572500", "135648.577500", "135649.580000", "135650.585000", "135651.587500", "135652.592500", "135653.597500", "135654.600000", "135655.605000", "135656.607500", "135657.612500", "135658.617500", "135659.620000", "135700.625000", "135701.630000", "135702.632500", "135703.637500", "135704.640000", "135705.645000", "135706.650000", "135707.652500", "135708.657500", "135709.660000", "135710.665000", "135711.670000", "135712.672500", "135713.677500", "135714.680000", "135715.685000", "135716.690000", "135717.692500", "135718.697500", "135719.700000", "135720.705000", "135721.710000", "135722.712500", "135723.717500", "135724.720000", "135725.725000", "135726.730000", "135727.732500", "135728.737500", "135729.740000", "135730.745000", "135731.750000", "135732.752500", "135733.757500", "135734.762500", "135735.765000", "135736.770000", "135737.772500", "135738.777500", "135739.782500", "135740.785000", "135741.790000", "135742.792500", "135743.797500", "135744.802500", "135745.805000", "135746.810000", "135747.812500", "135748.817500", "135749.822500", "135750.825000", "135751.830000", "135752.832500", "135753.837500", "135754.842500", "135755.845000", "135756.850000", "135757.852500", "135758.857500", "135759.862500", "135800.865000", "135801.870000", "135802.872500", "135803.877500", "135804.882500", "135805.885000", "135806.890000", "135807.895000", "135808.897500", "135809.902500", "135810.905000", "135811.910000", "135812.915000", "135813.917500", "135814.922500", "135815.925000", "135816.930000", "135817.935000", "135818.937500", "135819.942500", "135820.945000", "135821.950000", "135822.955000", "135823.957500", "135824.962500", "135825.965000", "135826.970000", "135827.975000", "135828.977500", "135829.982500", "135830.985000", "135831.990000", "135832.995000", "135833.997500", "135835.002500", "135836.007500", "135837.010000", "135838.015000", "135839.017500", "135840.022500", "135841.027500", "135842.030000", "135843.035000", "135844.037500", "135845.042500", "135846.047500", "135847.050000", "135848.055000", "135849.057500", "135850.062500", "135851.067500", "135852.070000"],
      "ContentTime": ["135355.468000", "135355.468000", "135355.484000", "135355.484000", "135355.484000", "135355.484000", "135355.484000", "135355.484000", "135355.484000", "135355.500000", "135355.500000", "135355.500000", "135355.500000", "135355.515000", "135355.515000", "135355.515000", "135355.515000", "135355.515000", "135355.531000", "135355.531000", "135355.531000", "135355.531000", "135355.531000", "135355.531000", "135355.546000", "135355.546000", "135355.546000", "135355.546000", "135355.546000", "135355.546000", "135355.546000", "135355.562000", "135415.437000", "135415.437000", "135415.437000", "135415.437000", "135415.437000", "135415.453000", "135415.453000", "135415.453000", "135415.453000", "135415.453000", "135415.453000", "135415.453000", "135415.453000", "135415.468000", "135415.468000", "135415.468000", "135415.468000", "135415.468000", "135415.484000", "135415.484000", "135435.437000", "135435.437000", "135435.437000", "135435.437000", "135435.437000", "135435.453000", "135435.453000", "135435.453000", "135435.453000", "135435.453000", "135435.453000", "135435.468000", "135435.468000", "135435.468000", "135435.468000", "135435.468000", "135435.484000", "135435.484000", "135435.484000", "135435.484000", "135455.437000", "135455.437000", "135455.437000", "135455.437000", "135455.437000", "135455.453000", "135455.453000", "135455.453000", "135455.453000", "135455.468000", "135455.468000", "135455.468000", "135455.468000", "135455.468000", "135455.468000", "135455.468000", "135455.468000", "135455.484000", "135455.484000", "135455.484000", "135515.437000", "135515.437000", "135515.437000", "135515.437000", "135515.437000", "135515.453000", "135515.453000", "135515.453000", "135515.453000", "135515.453000", "135515.453000", "135515.453000", "135515.453000", "135515.468000", "135515.468000", "135515.468000", "135515.484000", "135515.484000", "135515.484000", "135515.484000", "135535.437000", "135535.437000", "135535.437000", "135535.437000", "135535.437000", "135535.453000", "135535.453000", "135535.453000", "135535.453000", "135535.453000", "135535.453000", "135535.453000", "135535.453000", "135535.468000", "135535.468000", "135535.468000", "135535.468000", "135535.468000", "135535.468000", "135535.468000", "135555.437000", "135555.437000", "135555.437000", "135555.437000", "135555.437000", "135555.453000", "135555.453000", "135555.453000", "135555.453000", "135555.453000", "135555.453000", "135555.453000", "135555.453000", "135555.468000", "135555.468000", "135555.468000", "135555.468000", "135555.468000", "135555.468000", "135555.468000", "135615.437000", "135615.437000", "135615.437000", "135615.437000", "135615.437000", "135615.453000", "135615.453000", "135615.453000", "135615.453000", "135615.453000", "135615.453000", "135615.453000", "135615.468000", "135615.468000", "135615.468000", "135615.468000", "135615.468000", "135615.468000", "135615.468000", "135615.484000", "135635.437000", "135635.437000", "135635.437000", "135635.437000", "135635.437000", "135635.453000", "135635.453000", "135635.453000", "135635.453000", "135635.453000", "135635.468000", "135635.468000", "135635.468000", "135635.468000", "135635.484000", "135635.484000", "135635.484000", "135635.484000", "135635.500000", "135635.500000", "135655.437000", "135655.437000", "135655.437000", "135655.437000", "135655.437000", "135655.453000", "135655.453000", "135655.453000", "135655.453000", "135655.453000", "135655.453000", "135655.468000", "135655.468000", "135655.468000", "135655.468000", "135655.484000", "135655.484000", "135655.484000", "135655.484000", "135655.484000", "135715.437000", "135715.437000", "135715.437000", "135715.437000", "135715.453000", "135715.453000", "135715.453000", "135715.453000", "135715.468000", "135715.468000", "135715.468000", "135715.468000", "135715.468000", "135715.468000", "135715.468000", "135715.484000", "135715.484000", "135715.484000", "135715.484000", "135715.484000", "135735.437000", "135735.437000", "135735.437000", "135735.437000", "135735.437000", "135735.453000", "135735.453000", "135735.453000", "135735.453000", "135735.468000", "135735.468000", "135735.468000", "135735.468000", "135735.468000", "135735.468000", "135735.468000", "135735.468000", "135735.484000", "135735.484000", "135735.484000", "135755.437000", "135755.437000", "135755.437000", "135755.437000", "135755.437000", "135755.453000", "135755.453000", "135755.453000", "135755.453000", "135755.453000", "135755.468000", "135755.468000", "135755.468000", "135755.468000", "135755.468000", "135755.468000", "135755.468000", "135755.484000", "135755.484000", "135755.484000", "135815.437000", "135815.437000", "135815.437000", "135815.437000", "135815.437000", "135815.453000", "135815.453000", "135815.453000", "135815.453000", "135815.453000", "135815.453000", "135815.453000", "135815.468000", "135815.468000", "135815.468000", "135815.468000", "135815.468000", "135815.484000", "135815.484000", "135815.484000", "135835.437000", "135835.437000", "135835.437000", "135835.437000", "135835.453000", "135835.453000", "135835.453000", "135835.453000", "135835.453000", "135835.453000", "135835.468000", "135835.468000", "135835.468000", "135835.468000", "135835.484000", "135835.484000", "135835.484000", "135835.484000", "135835.484000", "135835.500000", "135858.203000", "135858.203000", "135858.203000", "135858.203000", "135858.203000", "135858.203000", "135858.218000", "135858.218000", "135858.218000", "135858.218000", "135858.218000", "135858.218000", "135858.218000", "135858.234000", "135858.234000", "135858.234000", "135858.234000", "135858.234000"],
      "InstanceCreationTime": ["135355.468000", "135355.468000", "135355.484000", "135355.484000", "135355.484000", "135355.484000", "135355.484000", "135355.484000", "135355.484000", "135355.500000", "135355.500000", "135355.500000", "135355.500000", "135355.515000", "135355.515000", "135355.515000", "135355.515000", "135355.515000", "135355.531000", "135355.531000", "135355.531000", "135355.531000", "135355.531000", "135355.531000", "135355.546000", "135355.546000", "135355.546000", "135355.546000", "135355.546000", "135355.546000", "135355.546000", "135355.562000", "135415.437000", "135415.437000", "135415.437000", "135415.437000", "135415.437000", "135415.453000", "135415.453000", "135415.453000", "135415.453000", "135415.453000", "135415.453000", "135415.453000", "135415.453000", "135415.468000", "135415.468000", "135415.468000", "135415.468000", "135415.468000", "135415.484000", "135415.484000", "135435.437000", "135435.437000", "135435.437000", "135435.437000", "135435.437000", "135435.453000", "135435.453000", "135435.453000", "135435.453000", "135435.453000", "135435.453000", "135435.468000", "135435.468000", "135435.468000", "135435.468000", "135435.468000", "135435.484000", "135435.484000", "135435.484000", "135435.484000", "135455.437000", "135455.437000", "135455.437000", "135455.437000", "135455.437000", "135455.453000", "135455.453000", "135455.453000", "135455.453000", "135455.468000", "135455.468000", "135455.468000", "135455.468000", "135455.468000", "135455.468000", "135455.468000", "135455.468000", "135455.484000", "135455.484000", "135455.484000", "135515.437000", "135515.437000", "135515.437000", "135515.437000", "135515.437000", "135515.453000", "135515.453000", "135515.453000", "135515.453000", "135515.453000", "135515.453000", "135515.453000", "135515.453000", "135515.468000", "135515.468000", "135515.468000", "135515.484000", "135515.484000", "135515.484000", "135515.484000", "135535.437000", "135535.437000", "135535.437000", "135535.437000", "135535.437000", "135535.453000", "135535.453000", "135535.453000", "135535.453000", "135535.453000", "135535.453000", "135535.453000", "135535.453000", "135535.468000", "135535.468000", "135535.468000", "135535.468000", "135535.468000", "135535.468000", "135535.468000", "135555.437000", "135555.437000", "135555.437000", "135555.437000", "135555.437000", "135555.453000", "135555.453000", "135555.453000", "135555.453000", "135555.453000", "135555.453000", "135555.453000", "135555.453000", "135555.468000", "135555.468000", "135555.468000", "135555.468000", "135555.468000", "135555.468000", "135555.468000", "135615.437000", "135615.437000", "135615.437000", "135615.437000", "135615.437000", "135615.453000", "135615.453000", "135615.453000", "135615.453000", "135615.453000", "135615.453000", "135615.453000", "135615.468000", "135615.468000", "135615.468000", "135615.468000", "135615.468000", "135615.468000", "135615.468000", "135615.484000", "135635.437000", "135635.437000", "135635.437000", "135635.437000", "135635.437000", "135635.453000", "135635.453000", "135635.453000", "135635.453000", "135635.453000", "135635.468000", "135635.468000", "135635.468000", "135635.468000", "135635.484000", "135635.484000", "135635.484000", "135635.484000", "135635.500000", "135635.500000", "135655.437000", "135655.437000", "135655.437000", "135655.437000", "135655.437000", "135655.453000", "135655.453000", "135655.453000", "135655.453000", "135655.453000", "135655.453000", "135655.468000", "135655.468000", "135655.468000", "135655.468000", "135655.484000", "135655.484000", "135655.484000", "135655.484000", "135655.484000", "135715.437000", "135715.437000", "135715.437000", "135715.437000", "135715.453000", "135715.453000", "135715.453000", "135715.453000", "135715.468000", "135715.468000", "135715.468000", "135715.468000", "135715.468000", "135715.468000", "135715.468000", "135715.484000", "135715.484000", "135715.484000", "135715.484000", "135715.484000", "135735.437000", "135735.437000", "135735.437000", "135735.437000", "135735.437000", "135735.453000", "135735.453000", "135735.453000", "135735.453000", "135735.468000", "135735.468000", "135735.468000", "135735.468000", "135735.468000", "135735.468000", "135735.468000", "135735.468000", "135735.484000", "135735.484000", "135735.484000", "135755.437000", "135755.437000", "135755.437000", "135755.437000", "135755.437000", "135755.453000", "135755.453000", "135755.453000", "135755.453000", "135755.453000", "135755.468000", "135755.468000", "135755.468000", "135755.468000", "135755.468000", "135755.468000", "135755.468000", "135755.484000", "135755.484000", "135755.484000", "135815.437000", "135815.437000", "135815.437000", "135815.437000", "135815.437000", "135815.453000", "135815.453000", "135815.453000", "135815.453000", "135815.453000", "135815.453000", "135815.453000", "135815.468000", "135815.468000", "135815.468000", "135815.468000", "135815.468000", "135815.484000", "135815.484000", "135815.484000", "135835.437000", "135835.437000", "135835.437000", "135835.437000", "135835.453000", "135835.453000", "135835.453000", "135835.453000", "135835.453000", "135835.453000", "135835.468000", "135835.468000", "135835.468000", "135835.468000", "135835.484000", "135835.484000", "135835.484000", "135835.484000", "135835.484000", "135835.500000", "135858.203000", "135858.203000", "135858.203000", "135858.203000", "135858.203000", "135858.203000", "135858.218000", "135858.218000", "135858.218000", "135858.218000", "135858.218000", "135858.218000", "135858.218000", "135858.234000", "135858.234000", "135858.234000", "135858.234000", "135858.234000"],
      "InstanceNumber": [1, 2, 3, 4, 5, 6, 7, 8, 9, 10, 11, 12, 13, 14, 15, 16, 17, 18, 19, 20, 21, 22, 23, 24, 25, 26, 27, 28, 29, 30, 31, 32, 33, 34, 35, 36, 37, 38, 39, 40, 41, 42, 43, 44, 45, 46, 47, 48, 49, 50, 51, 52, 53, 54, 55, 56, 57, 58, 59, 60, 61, 62, 63, 64, 65, 66, 67, 68, 69, 70, 71, 72, 73, 74, 75, 76, 77, 78, 79, 80, 81, 82, 83, 84, 85, 86, 87, 88, 89, 90, 91, 92, 93, 94, 95, 96, 97, 98, 99, 100, 101, 102, 103, 104, 105, 106, 107, 108, 109, 110, 111, 112, 113, 114, 115, 116, 117, 118, 119, 120, 121, 122, 123, 124, 125, 126, 127, 128, 129, 130, 131, 132, 133, 134, 135, 136, 137, 138, 139, 140, 141, 142, 143, 144, 145, 146, 147, 148, 149, 150, 151, 152, 153, 154, 155, 156, 157, 158, 159, 160, 161, 162, 163, 164, 165, 166, 167, 168, 169, 170, 171, 172, 173, 174, 175, 176, 177, 178, 179, 180, 181, 182, 183, 184, 185, 186, 187, 188, 189, 190, 191, 192, 193, 194, 195, 196, 197, 198, 199, 200, 201, 202, 203, 204, 205, 206, 207, 208, 209, 210, 211, 212, 213, 214, 215, 216, 217, 218, 219, 220, 221, 222, 223, 224, 225, 226, 227, 228, 229, 230, 231, 232, 233, 234, 235, 236, 237, 238, 239, 240, 241, 242, 243, 244, 245, 246, 247, 248, 249, 250, 251, 252, 253, 254, 255, 256, 257, 258, 259, 260, 261, 262, 263, 264, 265, 266, 267, 268, 269, 270, 271, 272, 273, 274, 275, 276, 277, 278, 279, 280, 281, 282, 283, 284, 285, 286, 287, 288, 289, 290, 291, 292, 293, 294, 295, 296, 297, 298, 299, 300, 301, 302, 303, 304, 305, 306, 307, 308, 309, 310, 311, 312, 313, 314, 315, 316, 317, 318, 319, 320, 321, 322, 323, 324, 325, 326, 327, 328, 329, 330],
      "LargestImagePixelValue": [2230, 2270, 2194, 2218, 2174, 2220, 2164, 2206, 2204, 2179, 2212, 2184, 2184, 2220, 2222, 2193, 2179, 2180, 2233, 2229, 2208, 2199, 2197, 2185, 2176, 2181, 2202, 2218, 2184, 2190, 2193, 2219, 2156, 2206, 2241, 2197, 2221, 2142, 2230, 2188, 2179, 2138, 2150, 2190, 2185, 2199, 2178, 2171, 2208, 2182, 2165, 2161, 2142, 2176, 2190, 2188, 2142, 2200, 2135, 2187, 2144, 2125, 2129, 2156, 2154, 2156, 2129, 2211, 2221, 2203, 2175, 2191, 2154, 2167, 2149, 2227, 2165, 2157, 2124, 2169, 2100, 2169, 2197, 2188, 2128, 2180, 2185, 2117, 2151, 2147, 2172, 2129, 2119, 2136, 2190, 2116, 2128, 2136, 2149, 2162, 2123, 2132, 2119, 2152, 2175, 2103, 2146, 2107, 2137, 2114, 2128, 2090, 2118, 2123, 2114, 2082, 2093, 2124, 2089, 2128, 2070, 2103, 2142, 2129, 2099, 2114, 2112, 2093, 2090, 2139, 2076, 2081, 2103, 2097, 2074, 2075, 2082, 2099, 2106, 2070, 2109, 2119, 2074, 2096, 2070, 2139, 2072, 2090, 2124, 2117, 2102, 2106, 2115, 2105, 2086, 2097, 2085, 2077, 2123, 2105, 2138, 2189, 2100, 2117, 2119, 2098, 2093, 2084, 2086, 2058, 2089, 2079, 2105, 2114, 2112, 2095, 2111, 2110, 2090, 2103, 2090, 2102, 2051, 2096, 2045, 2122, 2056, 2080, 2064, 2059, 2046, 2065, 2060, 2055, 2101, 2065, 2060, 2081, 2051, 2076, 2101, 2104, 2079, 2097, 2069, 2054, 2074, 2047, 2080, 2071, 2075, 2093, 2036, 2060, 2075, 2063, 2092, 2087, 2103, 2054, 2082, 2076, 2058, 2091, 2042, 2046, 2094, 2083, 2081, 2058, 2078, 2070, 2057, 2088, 2101, 2091, 2075, 2086, 2103, 2106, 2091, 2091, 2112, 2046, 2072, 2084, 2085, 2075, 2088, 2065, 2110, 2082, 2085, 2097, 2118, 2094, 2073, 2121, 2093, 2080, 2107, 2110, 2118, 2132, 2106, 2082, 2067, 2090, 2102, 2082, 2097, 2080, 2095, 2105, 2085, 2075, 2091, 2051, 2115, 2096, 2109, 2078, 2089, 2107, 2078, 2059, 2074, 2076, 2091, 2082, 2079, 2060, 2089, 2077, 2085, 2085, 2123, 2102, 2132, 2119, 2097, 2102, 2087, 2071, 2090, 2090, 2078, 2073, 2099, 2093, 2119, 2114, 2098, 2111, 2085, 2090, 2083, 2097, 2079, 2063, 2107, 2088, 2086, 2068, 2115, 2079, 2072, 2080, 2060, 2058],
      "WindowCenter": [462.0, 461.0, 459.0, 459.0, 458.0, 459.0, 458.0, 460.0, 460.0, 460.0, 461.0, 460.0, 460.0, 460.0, 460.0, 461.0, 461.0, 461.0, 463.0, 464.0, 463.0, 463.0, 463.0, 461.0, 460.0, 460.0, 461.0, 461.0, 461.0, 461.0, 461.0, 460.0, 459.0, 460.0, 461.0, 461.0, 462.0, 463.0, 464.0, 463.0, 462.0, 460.0, 459.0, 457.0, 455.0, 456.0, 456.0, 457.0, 457.0, 458.0, 456.0, 456.0, 455.0, 455.0, 455.0, 455.0, 454.0, 455.0, 455.0, 459.0, 461.0, 462.0, 462.0, 462.0, 462.0, 460.0, 460.0, 461.0, 461.0, 462.0, 462.0, 463.0, 462.0, 462.0, 461.0, 462.0, 461.0, 460.0, 460.0, 460.0, 460.0, 460.0, 460.0, 461.0, 460.0, 461.0, 460.0, 459.0, 461.0, 462.0, 462.0, 462.0, 461.0, 463.0, 464.0, 463.0, 462.0, 462.0, 461.0, 460.0, 459.0, 458.0, 459.0, 460.0, 460.0, 460.0, 460.0, 459.0, 460.0, 459.0, 458.0, 458.0, 458.0, 459.0, 460.0, 460.0, 460.0, 461.0, 460.0, 460.0, 459.0, 459.0, 459.0, 458.0, 458.0, 459.0, 460.0, 460.0, 460.0, 461.0, 459.0, 459.0, 459.0, 459.0, 458.0, 457.0, 459.0, 459.0, 459.0, 459.0, 459.0, 459.0, 459.0, 459.0, 460.0, 462.0, 461.0, 461.0, 461.0, 461.0, 460.0, 461.0, 461.0, 461.0, 460.0, 460.0, 459.0, 459.0, 459.0, 459.0, 459.0, 461.0, 460.0, 460.0, 460.0, 459.0, 459.0, 458.0, 458.0, 459.0, 459.0, 459.0, 459.0, 459.0, 460.0, 460.0, 461.0, 461.0, 462.0, 462.0, 461.0, 461.0, 459.0, 458.0, 457.0, 457.0, 456.0, 456.0, 457.0, 459.0, 459.0, 459.0, 459.0, 459.0, 459.0, 458.0, 458.0, 458.0, 457.0, 458.0, 458.0, 458.0, 458.0, 458.0, 457.0, 457.0, 457.0, 457.0, 457.0, 458.0, 459.0, 459.0, 459.0, 459.0, 459.0, 459.0, 460.0, 460.0, 461.0, 460.0, 461.0, 459.0, 459.0, 459.0, 459.0, 459.0, 459.0, 459.0, 460.0, 460.0, 461.0, 460.0, 459.0, 459.0, 459.0, 458.0, 459.0, 459.0, 459.0, 458.0, 458.0, 458.0, 459.0, 459.0, 460.0, 460.0, 460.0, 459.0, 460.0, 459.0, 460.0, 461.0, 461.0, 461.0, 461.0, 461.0, 461.0, 462.0, 462.0, 461.0, 460.0, 460.0, 459.0, 458.0, 459.0, 458.0, 458.0, 460.0, 461.0, 461.0, 462.0, 461.0, 461.0, 461.0, 460.0, 459.0, 459.0, 459.0, 460.0, 459.0, 459.0, 459.0, 459.0, 459.0, 459.0, 459.0, 460.0, 460.0, 461.0, 460.0, 459.0, 459.0, 459.0, 460.0, 459.0, 460.0, 460.0, 460.0, 460.0, 460.0, 460.0, 459.0, 458.0, 458.0, 459.0, 459.0, 459.0, 459.0, 459.0, 460.0, 462.0, 461.0, 460.0, 461.0, 460.0, 459.0, 459.0, 459.0, 458.0, 458.0, 459.0, 458.0, 458.0, 458.0, 459.0, 458.0, 457.0, 457.0, 457.0, 457.0],
