{
  "AcquisitionMatrixPE": 104,
  "AcquisitionNumber": 1,
  "AcquisitionTime": "11:11:43.322500",
  "BandwidthPerPixelPhaseEncode": 43.054,
  "BaseResolution": 104,
  "CoilString": "C:E1_2",
  "ConversionSoftware": "dcm2niix",
  "ConversionSoftwareVersion": "v1.0.20191031",
  "DerivedVendorReportedEchoSpacing": 0.000669999,
  "DeviceSerialNumber": "18932",
  "DwellTime": 2.8e-06,
  "EchoTime": 0.02,
  "EffectiveEchoSpacing": 0.000223333,
  "FlipAngle": 30,
  "ImageComments": "Unaliased_MB2_PE2",
  "ImageOrientationPatientDICOM": [1, 0, 0, 0, 0.997053, -0.076719],
  "ImageType": [
    "ORIGINAL",
    "PRIMARY",
    "M",
    "MB",
    "ND",
    "MOSAIC"
],
  "ImagingFrequency": 297.23,
  "InPlanePhaseEncodingDirectionDICOM": "COL",
  "InstitutionAddress": "Richmond_Street_North_1151_London_409EF2_Ontario_CA_N6A_5B7",
  "InstitutionName": "Robarts_Reserch_Institute",
  "InstitutionalDepartmentName": "Department",
  "MRAcquisitionType": "2D",
  "MagneticFieldStrength": 6.98,
  "Manufacturer": "Siemens",
  "ManufacturersModelName": "Investigational_Device_7T",
  "Modality": "MR",
  "MultibandAccelerationFactor": 2,
  "ParallelReductionFactorInPlane": 3,
  "PartialFourier": 0.875,
  "PatientPosition": "HFS",
  "PercentPhaseFOV": 100,
  "PhaseEncodingDirection": "j-",
  "PhaseEncodingSteps": 91,
  "PhaseResolution": 1,
  "PixelBandwidth": 1717,
  "ProcedureStepDescription": "Diedrichsen_SeqRep4",
  "ProtocolName": "mbep2d_bold_mb2_p3_AP_2iso",
  "PulseSequenceDetails": "%CustomerSeq%_cmrr_mbep2d_bold",
  "ReceiveCoilName": "CFMM_8Tx32Rx",
  "ReconMatrixPE": 104,
  "RefLinesPE": 36,
  "RepetitionTime": 1,
  "ScanOptions": "PFP_FS",
  "ScanningSequence": "EP",
  "SequenceName": "epfid2d1_104",
  "SequenceVariant": "SK_SS",
  "SeriesDescription": "mbep2d_bold_mb2_p3_AP_2iso",
  "SeriesNumber": 32,
  "ShimSetting": [-51, 1858, 411, 290, 239, -341, -216, -80],
  "SliceThickness": 2,
  "SliceTiming": [0, 0.2275, 0.455, 0.685, 0.9125, 0.1375, 0.365, 0.5925, 0.82, 0.045, 0.2725, 0.5025, 0.73, 0.9575, 0.1825, 0.41, 0.6375, 0.8675, 0.09, 0.32, 0.5475, 0.775, 0, 0.2275, 0.455, 0.685, 0.9125, 0.1375, 0.365, 0.5925, 0.82, 0.045, 0.2725, 0.5025, 0.73, 0.9575, 0.1825, 0.41, 0.6375, 0.8675, 0.09, 0.32, 0.5475, 0.775],
  "SoftwareVersions": "syngo_MR_B17",
  "SpacingBetweenSlices": 2,
  "StationName": "MASTER",
  "TaskName": "dsp",
  "TotalReadoutTime": 0.0230033,
  "TxRefAmp": 120,
  "dcmmeta_affine": [
    [-2.0, 0.0, 0.0, 105.4527816772461],
    [0.0, 1.9941054582595825, -0.1534380465745926, -102.03459167480469],
    [0.0, 0.1534380465745926, 1.9941054582595825, -37.67299270629883],
    [0.0, 0.0, 0.0, 1.0]
],
  "dcmmeta_reorient_transform": [
    [0.0, -1.0, 0.0, 103.0],
    [1.0, 0.0, 0.0, 0.0],
    [0.0, 0.0, 1.0, 0.0],
    [0.0, 0.0, 0.0, 1.0]
],
  "dcmmeta_shape": [104, 104, 44, 330],
  "dcmmeta_slice_dim": 2,
  "dcmmeta_version": 0.6,
  "global": {
    "const": {
      "AcquisitionMatrix": [104, 0, 0, 104],
      "AngioFlag": "N",
      "BitsAllocated": 16,
      "BitsStored": 12,
      "Columns": 728,
      "EchoNumbers": 1,
      "EchoTime": 20.0,
      "EchoTrainLength": 1,
      "FlipAngle": 30.0,
      "HighBit": 11,
      "ImageOrientationPatient": [1.0, 0.0, 0.0, 0.0, 0.99705275241222, -0.0767190257186],
      "ImagePositionPatient": [-729.45278453827, -725.5191925983, 26.003798287821],
      "ImageType": [
        "ORIGINAL",
        "PRIMARY",
        "M",
        "MB",
        "ND",
        "MOSAIC"
],
      "ImagedNucleus": "1H",
      "ImagingFrequency": 297.229777,
      "InPlanePhaseEncodingDirection": "COL",
      "MRAcquisitionType": "2D",
      "MagneticFieldStrength": 6.98,
      "Manufacturer": "SIEMENS",
      "ManufacturerModelName": "Investigational_Device_7T",
      "Modality": "MR",
      "NumberOfAverages": 1.0,
      "NumberOfPhaseEncodingSteps": 91,
      "PercentPhaseFieldOfView": 100.0,
      "PercentSampling": 100.0,
      "PerformedProcedureStepStartTime": "093742.890000",
      "PhotometricInterpretation": "MONOCHROME2",
      "PixelBandwidth": 1717.0,
      "PixelRepresentation": 0,
      "PixelSpacing": [2.0, 2.0],
      "ProtocolName": "mbep2d_bold_mb2_p3_AP 2iso",
      "RepetitionTime": 1000.0,
      "Rows": 728,
      "SAR": 0.0,
      "SamplesPerPixel": 1,
      "ScanOptions": [
        "PFP",
        "FS"
],
      "ScanningSequence": "EP",
      "SequenceName": "epfid2d1_104",
      "SequenceVariant": [
        "SK",
        "SS"
],
      "SeriesDescription": "mbep2d_bold_mb2_p3_AP 2iso",
      "SeriesNumber": 32,
      "SeriesTime": "111222.765000",
      "SliceLocation": -29.733966940226,
      "SliceThickness": 2.0,
      "SmallestImagePixelValue": 0,
      "SoftwareVersions": "syngo MR B17",
      "SpacingBetweenSlices": 1.9999999902232,
      "SpecificCharacterSet": "ISO_IR 100",
      "StudyID": "1",
      "StudyTime": "093742.828000",
      "TransmitCoilName": "CFMM_8Tx32Rx",
      "VariableFlipAngleFlag": "N",
      "WindowCenterWidthExplanation": "Algo1",
      "dBdt": 0.0},
    "slices": {}
  },
  "time": {
    "samples": {
      "AcquisitionNumber": [1, 2, 3, 4, 5, 6, 7, 8, 9, 10, 11, 12, 13, 14, 15, 16, 17, 18, 19, 20, 21, 22, 23, 24, 25, 26, 27, 28, 29, 30, 31, 32, 33, 34, 35, 36, 37, 38, 39, 40, 41, 42, 43, 44, 45, 46, 47, 48, 49, 50, 51, 52, 53, 54, 55, 56, 57, 58, 59, 60, 61, 62, 63, 64, 65, 66, 67, 68, 69, 70, 71, 72, 73, 74, 75, 76, 77, 78, 79, 80, 81, 82, 83, 84, 85, 86, 87, 88, 89, 90, 91, 92, 93, 94, 95, 96, 97, 98, 99, 100, 101, 102, 103, 104, 105, 106, 107, 108, 109, 110, 111, 112, 113, 114, 115, 116, 117, 118, 119, 120, 121, 122, 123, 124, 125, 126, 127, 128, 129, 130, 131, 132, 133, 134, 135, 136, 137, 138, 139, 140, 141, 142, 143, 144, 145, 146, 147, 148, 149, 150, 151, 152, 153, 154, 155, 156, 157, 158, 159, 160, 161, 162, 163, 164, 165, 166, 167, 168, 169, 170, 171, 172, 173, 174, 175, 176, 177, 178, 179, 180, 181, 182, 183, 184, 185, 186, 187, 188, 189, 190, 191, 192, 193, 194, 195, 196, 197, 198, 199, 200, 201, 202, 203, 204, 205, 206, 207, 208, 209, 210, 211, 212, 213, 214, 215, 216, 217, 218, 219, 220, 221, 222, 223, 224, 225, 226, 227, 228, 229, 230, 231, 232, 233, 234, 235, 236, 237, 238, 239, 240, 241, 242, 243, 244, 245, 246, 247, 248, 249, 250, 251, 252, 253, 254, 255, 256, 257, 258, 259, 260, 261, 262, 263, 264, 265, 266, 267, 268, 269, 270, 271, 272, 273, 274, 275, 276, 277, 278, 279, 280, 281, 282, 283, 284, 285, 286, 287, 288, 289, 290, 291, 292, 293, 294, 295, 296, 297, 298, 299, 300, 301, 302, 303, 304, 305, 306, 307, 308, 309, 310, 311, 312, 313, 314, 315, 316, 317, 318, 319, 320, 321, 322, 323, 324, 325, 326, 327, 328, 329, 330],
      "AcquisitionTime": ["111143.322500", "111144.325000", "111145.330000", "111146.335000", "111147.337500", "111148.342500", "111149.347500", "111150.350000", "111151.355000", "111152.357500", "111153.362500", "111154.367500", "111155.370000", "111156.375000", "111157.377500", "111158.382500", "111159.387500", "111200.390000", "111201.395000", "111202.397500", "111203.402500", "111204.407500", "111205.410000", "111206.415000", "111207.417500", "111208.422500", "111209.427500", "111210.430000", "111211.435000", "111212.437500", "111213.442500", "111214.447500", "111215.450000", "111216.455000", "111217.457500", "111218.462500", "111219.467500", "111220.470000", "111221.475000", "111222.480000", "111223.482500", "111224.487500", "111225.490000", "111226.495000", "111227.500000", "111228.502500", "111229.507500", "111230.510000", "111231.515000", "111232.520000", "111233.522500", "111234.527500", "111235.530000", "111236.535000", "111237.540000", "111238.542500", "111239.547500", "111240.550000", "111241.555000", "111242.560000", "111243.562500", "111244.567500", "111245.570000", "111246.575000", "111247.580000", "111248.582500", "111249.587500", "111250.590000", "111251.595000", "111252.600000", "111253.602500", "111254.607500", "111255.612500", "111256.615000", "111257.620000", "111258.622500", "111259.627500", "111300.632500", "111301.635000", "111302.640000", "111303.642500", "111304.647500", "111305.652500", "111306.655000", "111307.660000", "111308.662500", "111309.667500", "111310.672500", "111311.675000", "111312.680000", "111313.682500", "111314.687500", "111315.692500", "111316.695000", "111317.700000", "111318.702500", "111319.707500", "111320.712500", "111321.715000", "111322.720000", "111323.725000", "111324.727500", "111325.732500", "111326.735000", "111327.740000", "111328.745000", "111329.747500", "111330.752500", "111331.755000", "111332.760000", "111333.765000", "111334.767500", "111335.772500", "111336.775000", "111337.780000", "111338.785000", "111339.787500", "111340.792500", "111341.795000", "111342.800000", "111343.805000", "111344.807500", "111345.812500", "111346.815000", "111347.820000", "111348.825000", "111349.827500", "111350.832500", "111351.835000", "111352.840000", "111353.845000", "111354.847500", "111355.852500", "111356.857500", "111357.860000", "111358.865000", "111359.867500", "111400.872500", "111401.877500", "111402.880000", "111403.885000", "111404.887500", "111405.892500", "111406.897500", "111407.900000", "111408.905000", "111409.907500", "111410.912500", "111411.917500", "111412.920000", "111413.925000", "111414.927500", "111415.932500", "111416.937500", "111417.940000", "111418.945000", "111419.947500", "111420.952500", "111421.957500", "111422.960000", "111423.965000", "111424.970000", "111425.972500", "111426.977500", "111427.980000", "111428.985000", "111429.990000", "111430.992500", "111431.997500", "111433.000000", "111434.005000", "111435.010000", "111436.012500", "111437.017500", "111438.020000", "111439.025000", "111440.030000", "111441.032500", "111442.037500", "111443.040000", "111444.045000", "111445.050000", "111446.052500", "111447.057500", "111448.060000", "111449.065000", "111450.070000", "111451.072500", "111452.077500", "111453.080000", "111454.085000", "111455.090000", "111456.092500", "111457.097500", "111458.102500", "111459.105000", "111500.110000", "111501.112500", "111502.117500", "111503.122500", "111504.125000", "111505.130000", "111506.132500", "111507.137500", "111508.142500", "111509.145000", "111510.150000", "111511.152500", "111512.157500", "111513.162500", "111514.165000", "111515.170000", "111516.172500", "111517.177500", "111518.182500", "111519.185000", "111520.190000", "111521.192500", "111522.197500", "111523.202500", "111524.205000", "111525.210000", "111526.212500", "111527.217500", "111528.222500", "111529.225000", "111530.230000", "111531.235000", "111532.237500", "111533.242500", "111534.245000", "111535.250000", "111536.255000", "111537.257500", "111538.262500", "111539.265000", "111540.270000", "111541.275000", "111542.277500", "111543.282500", "111544.285000", "111545.290000", "111546.295000", "111547.297500", "111548.302500", "111549.305000", "111550.310000", "111551.315000", "111552.317500", "111553.322500", "111554.325000", "111555.330000", "111556.335000", "111557.337500", "111558.342500", "111559.347500", "111600.350000", "111601.355000", "111602.357500", "111603.362500", "111604.367500", "111605.370000", "111606.375000", "111607.377500", "111608.382500", "111609.387500", "111610.390000", "111611.395000", "111612.397500", "111613.402500", "111614.407500", "111615.410000", "111616.415000", "111617.417500", "111618.422500", "111619.427500", "111620.430000", "111621.435000", "111622.437500", "111623.442500", "111624.447500", "111625.450000", "111626.455000", "111627.457500", "111628.462500", "111629.467500", "111630.470000", "111631.475000", "111632.480000", "111633.482500", "111634.487500", "111635.490000", "111636.495000", "111637.500000", "111638.502500", "111639.507500", "111640.510000", "111641.515000", "111642.520000", "111643.522500", "111644.527500", "111645.530000", "111646.535000", "111647.540000", "111648.542500", "111649.547500", "111650.550000", "111651.555000", "111652.560000", "111653.562500", "111654.567500", "111655.570000", "111656.575000", "111657.580000", "111658.582500", "111659.587500", "111700.590000", "111701.595000", "111702.600000", "111703.602500", "111704.607500", "111705.612500", "111706.615000", "111707.620000", "111708.622500", "111709.627500", "111710.632500", "111711.635000", "111712.640000", "111713.642500"],
      "ContentTime": ["111222.765000", "111222.781000", "111222.781000", "111222.781000", "111222.781000", "111222.781000", "111222.781000", "111222.796000", "111222.796000", "111222.796000", "111222.796000", "111222.796000", "111222.812000", "111222.812000", "111222.812000", "111222.812000", "111222.812000", "111222.812000", "111222.812000", "111222.828000", "111222.828000", "111222.828000", "111222.828000", "111222.828000", "111222.828000", "111222.828000", "111222.843000", "111222.843000", "111222.843000", "111222.843000", "111222.843000", "111222.859000", "111222.859000", "111222.859000", "111222.859000", "111222.859000", "111222.859000", "111222.859000", "111242.734000", "111242.734000", "111242.734000", "111242.750000", "111242.750000", "111242.750000", "111242.750000", "111242.750000", "111242.750000", "111242.750000", "111242.750000", "111242.765000", "111242.765000", "111242.765000", "111242.765000", "111242.765000", "111242.765000", "111242.781000", "111242.781000", "111242.781000", "111302.734000", "111302.734000", "111302.734000", "111302.734000", "111302.734000", "111302.750000", "111302.750000", "111302.750000", "111302.750000", "111302.750000", "111302.750000", "111302.750000", "111302.750000", "111302.765000", "111302.765000", "111302.765000", "111302.765000", "111302.765000", "111302.765000", "111302.765000", "111322.734000", "111322.734000", "111322.734000", "111322.734000", "111322.750000", "111322.750000", "111322.750000", "111322.750000", "111322.765000", "111322.765000", "111322.765000", "111322.765000", "111322.765000", "111322.765000", "111322.765000", "111322.781000", "111322.781000", "111322.781000", "111322.781000", "111322.781000", "111342.734000", "111342.734000", "111342.734000", "111342.734000", "111342.750000", "111342.750000", "111342.750000", "111342.750000", "111342.750000", "111342.750000", "111342.750000", "111342.765000", "111342.765000", "111342.765000", "111342.765000", "111342.765000", "111342.765000", "111342.765000", "111342.781000", "111342.781000", "111402.734000", "111402.734000", "111402.734000", "111402.734000", "111402.734000", "111402.750000", "111402.750000", "111402.750000", "111402.750000", "111402.750000", "111402.750000", "111402.750000", "111402.765000", "111402.765000", "111402.765000", "111402.765000", "111402.765000", "111402.765000", "111402.765000", "111402.765000", "111422.734000", "111422.734000", "111422.734000", "111422.734000", "111422.750000", "111422.750000", "111422.750000", "111422.750000", "111422.750000", "111422.750000", "111422.750000", "111422.765000", "111422.765000", "111422.765000", "111422.765000", "111422.765000", "111422.765000", "111422.781000", "111422.781000", "111422.781000", "111442.734000", "111442.734000", "111442.734000", "111442.734000", "111442.734000", "111442.750000", "111442.750000", "111442.765000", "111442.765000", "111442.765000", "111442.765000", "111442.765000", "111442.765000", "111442.765000", "111442.781000", "111442.781000", "111442.781000", "111442.781000", "111442.781000", "111442.781000", "111502.734000", "111502.734000", "111502.734000", "111502.734000", "111502.750000", "111502.750000", "111502.750000", "111502.750000", "111502.765000", "111502.765000", "111502.765000", "111502.765000", "111502.765000", "111502.765000", "111502.765000", "111502.765000", "111502.781000", "111502.781000", "111502.781000", "111502.781000", "111522.734000", "111522.734000", "111522.734000", "111522.734000", "111522.734000", "111522.750000", "111522.750000", "111522.750000", "111522.750000", "111522.750000", "111522.750000", "111522.765000", "111522.765000", "111522.765000", "111522.765000", "111522.765000", "111522.781000", "111522.781000", "111522.781000", "111522.781000", "111542.734000", "111542.734000", "111542.734000", "111542.734000", "111542.734000", "111542.750000", "111542.750000", "111542.750000", "111542.750000", "111542.750000", "111542.750000", "111542.750000", "111542.750000", "111542.765000", "111542.765000", "111542.765000", "111542.765000", "111542.765000", "111542.765000", "111542.765000", "111602.734000", "111602.734000", "111602.734000", "111602.734000", "111602.734000", "111602.750000", "111602.750000", "111602.750000", "111602.750000", "111602.750000", "111602.750000", "111602.750000", "111602.765000", "111602.765000", "111602.765000", "111602.765000", "111602.765000", "111602.765000", "111602.781000", "111602.781000", "111622.734000", "111622.734000", "111622.734000", "111622.734000", "111622.750000", "111622.750000", "111622.750000", "111622.750000", "111622.750000", "111622.750000", "111622.750000", "111622.750000", "111622.765000", "111622.765000", "111622.765000", "111622.765000", "111622.765000", "111622.765000", "111622.765000", "111622.781000", "111642.734000", "111642.734000", "111642.734000", "111642.734000", "111642.734000", "111642.750000", "111642.750000", "111642.750000", "111642.750000", "111642.750000", "111642.750000", "111642.750000", "111642.750000", "111642.765000", "111642.765000", "111642.765000", "111642.765000", "111642.765000", "111642.765000", "111642.765000", "111702.734000", "111702.734000", "111702.734000", "111702.734000", "111702.734000", "111702.750000", "111702.750000", "111702.750000", "111702.750000", "111702.750000", "111702.750000", "111702.750000", "111702.750000", "111702.765000", "111702.765000", "111702.765000", "111702.765000", "111702.765000", "111702.765000", "111702.765000", "111719.609000", "111719.609000", "111719.609000", "111719.609000", "111719.625000", "111719.625000", "111719.625000", "111719.625000", "111719.625000", "111719.625000", "111719.625000", "111719.640000"],
      "InstanceCreationTime": ["111222.765000", "111222.781000", "111222.781000", "111222.781000", "111222.781000", "111222.781000", "111222.781000", "111222.796000", "111222.796000", "111222.796000", "111222.796000", "111222.796000", "111222.812000", "111222.812000", "111222.812000", "111222.812000", "111222.812000", "111222.812000", "111222.812000", "111222.828000", "111222.828000", "111222.828000", "111222.828000", "111222.828000", "111222.828000", "111222.828000", "111222.843000", "111222.843000", "111222.843000", "111222.843000", "111222.843000", "111222.859000", "111222.859000", "111222.859000", "111222.859000", "111222.859000", "111222.859000", "111222.859000", "111242.734000", "111242.734000", "111242.734000", "111242.750000", "111242.750000", "111242.750000", "111242.750000", "111242.750000", "111242.750000", "111242.750000", "111242.750000", "111242.765000", "111242.765000", "111242.765000", "111242.765000", "111242.765000", "111242.765000", "111242.781000", "111242.781000", "111242.781000", "111302.734000", "111302.734000", "111302.734000", "111302.734000", "111302.734000", "111302.750000", "111302.750000", "111302.750000", "111302.750000", "111302.750000", "111302.750000", "111302.750000", "111302.750000", "111302.765000", "111302.765000", "111302.765000", "111302.765000", "111302.765000", "111302.765000", "111302.765000", "111322.734000", "111322.734000", "111322.734000", "111322.734000", "111322.750000", "111322.750000", "111322.750000", "111322.750000", "111322.765000", "111322.765000", "111322.765000", "111322.765000", "111322.765000", "111322.765000", "111322.765000", "111322.781000", "111322.781000", "111322.781000", "111322.781000", "111322.781000", "111342.734000", "111342.734000", "111342.734000", "111342.734000", "111342.750000", "111342.750000", "111342.750000", "111342.750000", "111342.750000", "111342.750000", "111342.750000", "111342.765000", "111342.765000", "111342.765000", "111342.765000", "111342.765000", "111342.765000", "111342.765000", "111342.781000", "111342.781000", "111402.734000", "111402.734000", "111402.734000", "111402.734000", "111402.734000", "111402.750000", "111402.750000", "111402.750000", "111402.750000", "111402.750000", "111402.750000", "111402.750000", "111402.765000", "111402.765000", "111402.765000", "111402.765000", "111402.765000", "111402.765000", "111402.765000", "111402.765000", "111422.734000", "111422.734000", "111422.734000", "111422.734000", "111422.750000", "111422.750000", "111422.750000", "111422.750000", "111422.750000", "111422.750000", "111422.750000", "111422.765000", "111422.765000", "111422.765000", "111422.765000", "111422.765000", "111422.765000", "111422.781000", "111422.781000", "111422.781000", "111442.734000", "111442.734000", "111442.734000", "111442.734000", "111442.734000", "111442.750000", "111442.750000", "111442.765000", "111442.765000", "111442.765000", "111442.765000", "111442.765000", "111442.765000", "111442.765000", "111442.781000", "111442.781000", "111442.781000", "111442.781000", "111442.781000", "111442.781000", "111502.734000", "111502.734000", "111502.734000", "111502.734000", "111502.750000", "111502.750000", "111502.750000", "111502.750000", "111502.765000", "111502.765000", "111502.765000", "111502.765000", "111502.765000", "111502.765000", "111502.765000", "111502.765000", "111502.781000", "111502.781000", "111502.781000", "111502.781000", "111522.734000", "111522.734000", "111522.734000", "111522.734000", "111522.734000", "111522.750000", "111522.750000", "111522.750000", "111522.750000", "111522.750000", "111522.750000", "111522.765000", "111522.765000", "111522.765000", "111522.765000", "111522.765000", "111522.781000", "111522.781000", "111522.781000", "111522.781000", "111542.734000", "111542.734000", "111542.734000", "111542.734000", "111542.734000", "111542.750000", "111542.750000", "111542.750000", "111542.750000", "111542.750000", "111542.750000", "111542.750000", "111542.750000", "111542.765000", "111542.765000", "111542.765000", "111542.765000", "111542.765000", "111542.765000", "111542.765000", "111602.734000", "111602.734000", "111602.734000", "111602.734000", "111602.734000", "111602.750000", "111602.750000", "111602.750000", "111602.750000", "111602.750000", "111602.750000", "111602.750000", "111602.765000", "111602.765000", "111602.765000", "111602.765000", "111602.765000", "111602.765000", "111602.781000", "111602.781000", "111622.734000", "111622.734000", "111622.734000", "111622.734000", "111622.750000", "111622.750000", "111622.750000", "111622.750000", "111622.750000", "111622.750000", "111622.750000", "111622.750000", "111622.765000", "111622.765000", "111622.765000", "111622.765000", "111622.765000", "111622.765000", "111622.765000", "111622.781000", "111642.734000", "111642.734000", "111642.734000", "111642.734000", "111642.734000", "111642.750000", "111642.750000", "111642.750000", "111642.750000", "111642.750000", "111642.750000", "111642.750000", "111642.750000", "111642.765000", "111642.765000", "111642.765000", "111642.765000", "111642.765000", "111642.765000", "111642.765000", "111702.734000", "111702.734000", "111702.734000", "111702.734000", "111702.734000", "111702.750000", "111702.750000", "111702.750000", "111702.750000", "111702.750000", "111702.750000", "111702.750000", "111702.750000", "111702.765000", "111702.765000", "111702.765000", "111702.765000", "111702.765000", "111702.765000", "111702.765000", "111719.609000", "111719.609000", "111719.609000", "111719.609000", "111719.625000", "111719.625000", "111719.625000", "111719.625000", "111719.625000", "111719.625000", "111719.625000", "111719.640000"],
      "InstanceNumber": [1, 2, 3, 4, 5, 6, 7, 8, 9, 10, 11, 12, 13, 14, 15, 16, 17, 18, 19, 20, 21, 22, 23, 24, 25, 26, 27, 28, 29, 30, 31, 32, 33, 34, 35, 36, 37, 38, 39, 40, 41, 42, 43, 44, 45, 46, 47, 48, 49, 50, 51, 52, 53, 54, 55, 56, 57, 58, 59, 60, 61, 62, 63, 64, 65, 66, 67, 68, 69, 70, 71, 72, 73, 74, 75, 76, 77, 78, 79, 80, 81, 82, 83, 84, 85, 86, 87, 88, 89, 90, 91, 92, 93, 94, 95, 96, 97, 98, 99, 100, 101, 102, 103, 104, 105, 106, 107, 108, 109, 110, 111, 112, 113, 114, 115, 116, 117, 118, 119, 120, 121, 122, 123, 124, 125, 126, 127, 128, 129, 130, 131, 132, 133, 134, 135, 136, 137, 138, 139, 140, 141, 142, 143, 144, 145, 146, 147, 148, 149, 150, 151, 152, 153, 154, 155, 156, 157, 158, 159, 160, 161, 162, 163, 164, 165, 166, 167, 168, 169, 170, 171, 172, 173, 174, 175, 176, 177, 178, 179, 180, 181, 182, 183, 184, 185, 186, 187, 188, 189, 190, 191, 192, 193, 194, 195, 196, 197, 198, 199, 200, 201, 202, 203, 204, 205, 206, 207, 208, 209, 210, 211, 212, 213, 214, 215, 216, 217, 218, 219, 220, 221, 222, 223, 224, 225, 226, 227, 228, 229, 230, 231, 232, 233, 234, 235, 236, 237, 238, 239, 240, 241, 242, 243, 244, 245, 246, 247, 248, 249, 250, 251, 252, 253, 254, 255, 256, 257, 258, 259, 260, 261, 262, 263, 264, 265, 266, 267, 268, 269, 270, 271, 272, 273, 274, 275, 276, 277, 278, 279, 280, 281, 282, 283, 284, 285, 286, 287, 288, 289, 290, 291, 292, 293, 294, 295, 296, 297, 298, 299, 300, 301, 302, 303, 304, 305, 306, 307, 308, 309, 310, 311, 312, 313, 314, 315, 316, 317, 318, 319, 320, 321, 322, 323, 324, 325, 326, 327, 328, 329, 330],
      "LargestImagePixelValue": [1811, 1809, 1791, 1779, 1777, 1785, 1755, 1751, 1743, 1744, 1776, 1768, 1736, 1757, 1744, 1755, 1810, 1770, 1741, 1763, 1754, 1768, 1753, 1774, 1781, 1777, 1768, 1748, 1784, 1809, 1800, 1805, 1819, 1835, 1816, 1797, 1818, 1775, 1810, 1782, 1777, 1802, 1797, 1827, 1807, 1795, 1795, 1802, 1800, 1841, 1792, 1768, 1779, 1810, 1820, 1805, 1798, 1798, 1807, 1807, 1840, 1775, 1763, 1787, 1769, 1780, 1796, 1758, 1818, 1822, 1774, 1790, 1803, 1790, 1788, 1771, 1781, 1766, 1767, 1803, 1790, 1789, 1768, 1810, 1800, 1790, 1763, 1785, 1779, 1807, 1797, 1786, 1802, 1760, 1785, 1790, 1770, 1779, 1768, 1787, 1764, 1756, 1766, 1797, 1770, 1769, 1782, 1766, 1787, 1792, 1768, 1797, 1746, 1785, 1807, 1771, 1784, 1769, 1797, 1771, 1769, 1772, 1779, 1779, 1768, 1768, 1773, 1754, 1766, 1768, 1759, 1752, 1747, 1771, 1825, 1772, 1762, 1770, 1756, 1789, 1773, 1751, 1780, 1771, 1756, 1745, 1746, 1742, 1745, 1728, 1755, 1757, 1756, 1757, 1730, 1755, 1751, 1789, 1778, 1760, 1713, 1728, 1696, 1713, 1739, 1717, 1712, 1741, 1758, 1742, 1756, 1715, 1736, 1753, 1738, 1733, 1753, 1732, 1763, 1750, 1730, 1710, 1716, 1733, 1708, 1726, 1712, 1748, 1734, 1733, 1717, 1710, 1726, 1719, 1715, 1740, 1718, 1723, 1699, 1727, 1708, 1717, 1693, 1714, 1701, 1724, 1730, 1750, 1753, 1766, 1734, 1735, 1758, 1763, 1775, 1768, 1748, 1800, 1787, 1762, 1750, 1788, 1755, 1754, 1767, 1760, 1760, 1776, 1763, 1744, 1752, 1757, 1767, 1734, 1732, 1716, 1756, 1764, 1774, 1751, 1755, 1776, 1782, 1789, 1780, 1770, 1783, 1761, 1762, 1781, 1764, 1743, 1749, 1719, 1730, 1742, 1733, 1732, 1747, 1743, 1727, 1745, 1756, 1724, 1736, 1731, 1772, 1699, 1718, 1742, 1745, 1732, 1737, 1742, 1721, 1725, 1754, 1797, 1754, 1783, 1771, 1772, 1741, 1764, 1741, 1762, 1733, 1729, 1740, 1754, 1742, 1737, 1779, 1756, 1754, 1745, 1759, 1736, 1788, 1763, 1729, 1705, 1748, 1726, 1749, 1741, 1727, 1731, 1746, 1715, 1754, 1730, 1706, 1762, 1724, 1712, 1730, 1682, 1703, 1749, 1696, 1704, 1706, 1720, 1719, 1694, 1700, 1697, 1725, 1742],
      "WindowCenter": [376.0, 376.0, 376.0, 375.0, 375.0, 375.0, 374.0, 374.0, 374.0, 375.0, 375.0, 375.0, 375.0, 375.0, 375.0, 374.0, 374.0, 374.0, 374.0, 374.0, 374.0, 374.0, 372.0, 371.0, 371.0, 371.0, 371.0, 371.0, 371.0, 370.0, 370.0, 370.0, 370.0, 371.0, 371.0, 370.0, 370.0, 369.0, 370.0, 370.0, 371.0, 371.0, 371.0, 371.0, 370.0, 370.0, 370.0, 370.0, 370.0, 370.0, 369.0, 370.0, 370.0, 370.0, 370.0, 370.0, 371.0, 371.0, 371.0, 371.0, 371.0, 371.0, 370.0, 370.0, 370.0, 370.0, 370.0, 370.0, 370.0, 370.0, 370.0, 371.0, 371.0, 371.0, 371.0, 371.0, 371.0, 370.0, 370.0, 371.0, 371.0, 370.0, 370.0, 371.0, 370.0, 371.0, 370.0, 371.0, 370.0, 370.0, 370.0, 370.0, 371.0, 370.0, 371.0, 370.0, 369.0, 370.0, 369.0, 370.0, 370.0, 369.0, 370.0, 370.0, 370.0, 370.0, 370.0, 370.0, 370.0, 370.0, 370.0, 371.0, 371.0, 371.0, 370.0, 370.0, 370.0, 370.0, 370.0, 370.0, 370.0, 370.0, 370.0, 370.0, 369.0, 370.0, 370.0, 369.0, 369.0, 369.0, 369.0, 369.0, 369.0, 370.0, 370.0, 370.0, 370.0, 370.0, 370.0, 370.0, 370.0, 371.0, 370.0, 369.0, 369.0, 369.0, 369.0, 370.0, 370.0, 371.0, 370.0, 370.0, 370.0, 369.0, 368.0, 369.0, 370.0, 370.0, 370.0, 371.0, 371.0, 369.0, 369.0, 369.0, 371.0, 371.0, 371.0, 370.0, 370.0, 370.0, 370.0, 370.0, 368.0, 368.0, 368.0, 369.0, 370.0, 370.0, 370.0, 369.0, 371.0, 371.0, 372.0, 372.0, 371.0, 372.0, 371.0, 371.0, 370.0, 370.0, 370.0, 370.0, 371.0, 370.0, 371.0, 371.0, 371.0, 371.0, 371.0, 372.0, 371.0, 372.0, 372.0, 372.0, 372.0, 372.0, 372.0, 370.0, 370.0, 370.0, 370.0, 370.0, 371.0, 370.0, 371.0, 370.0, 369.0, 370.0, 370.0, 371.0, 370.0, 370.0, 370.0, 370.0, 370.0, 371.0, 370.0, 370.0, 370.0, 370.0, 370.0, 370.0, 370.0, 370.0, 372.0, 371.0, 372.0, 373.0, 373.0, 373.0, 373.0, 373.0, 372.0, 370.0, 370.0, 370.0, 370.0, 370.0, 370.0, 370.0, 370.0, 369.0, 369.0, 369.0, 370.0, 369.0, 369.0, 369.0, 369.0, 369.0, 368.0, 369.0, 369.0, 369.0, 370.0, 370.0, 370.0, 368.0, 368.0, 368.0, 369.0, 370.0, 370.0, 370.0, 370.0, 369.0, 369.0, 369.0, 369.0, 370.0, 370.0, 371.0, 370.0, 369.0, 368.0, 369.0, 369.0, 368.0, 369.0, 370.0, 370.0, 371.0, 371.0, 371.0, 370.0, 369.0, 369.0, 369.0, 369.0, 369.0, 370.0, 370.0, 371.0, 371.0, 370.0, 370.0, 369.0, 369.0, 369.0, 368.0, 369.0, 370.0, 370.0, 371.0, 370.0, 370.0, 370.0, 369.0, 369.0, 368.0, 369.0, 368.0, 368.0, 369.0, 369.0, 369.0, 369.0, 369.0, 369.0, 369.0],
