{
  "AcquisitionMatrixPE": 104,
  "AcquisitionNumber": 1,
  "AcquisitionTime": "10:07:27.585000",
  "BandwidthPerPixelPhaseEncode": 43.054,
  "BaseResolution": 104,
  "CoilString": "C:E1_2",
  "ConversionSoftware": "dcm2niix",
  "ConversionSoftwareVersion": "v1.0.20191031",
  "DerivedVendorReportedEchoSpacing": 0.000669999,
  "DeviceSerialNumber": "18932",
  "DwellTime": 2.8e-06,
  "EchoTime": 0.02,
  "EffectiveEchoSpacing": 0.000223333,
  "FlipAngle": 30,
  "ImageComments": "Unaliased_MB2_PE2",
  "ImageOrientationPatientDICOM": [1, 0, 0, 0, 0.997053, -0.076719],
  "ImageType": [
    "ORIGINAL",
    "PRIMARY",
    "M",
    "MB",
    "ND",
    "MOSAIC"
],
  "ImagingFrequency": 297.23,
  "InPlanePhaseEncodingDirectionDICOM": "COL",
  "InstitutionAddress": "Richmond_Street_North_1151_London_409EF2_Ontario_CA_N6A_5B7",
  "InstitutionName": "Robarts_Reserch_Institute",
  "InstitutionalDepartmentName": "Department",
  "MRAcquisitionType": "2D",
  "MagneticFieldStrength": 6.98,
  "Manufacturer": "Siemens",
  "ManufacturersModelName": "Investigational_Device_7T",
  "Modality": "MR",
  "MultibandAccelerationFactor": 2,
  "ParallelReductionFactorInPlane": 3,
  "PartialFourier": 0.875,
  "PatientPosition": "HFS",
  "PercentPhaseFOV": 100,
  "PhaseEncodingDirection": "j-",
  "PhaseEncodingSteps": 91,
  "PhaseResolution": 1,
  "PixelBandwidth": 1717,
  "ProcedureStepDescription": "Diedrichsen_SeqRep4",
  "ProtocolName": "mbep2d_bold_mb2_p3_AP_2iso",
  "PulseSequenceDetails": "%CustomerSeq%_cmrr_mbep2d_bold",
  "ReceiveCoilName": "CFMM_8Tx32Rx",
  "ReconMatrixPE": 104,
  "RefLinesPE": 36,
  "RepetitionTime": 1,
  "ScanOptions": "PFP_FS",
  "ScanningSequence": "EP",
  "SequenceName": "epfid2d1_104",
  "SequenceVariant": "SK_SS",
  "SeriesDescription": "mbep2d_bold_mb2_p3_AP_2iso",
  "SeriesNumber": 11,
  "ShimSetting": [-51, 1858, 411, 290, 239, -341, -216, -80],
  "SliceThickness": 2,
  "SliceTiming": [0, 0.23, 0.4575, 0.685, 0.9125, 0.1375, 0.365, 0.595, 0.8225, 0.0475, 0.275, 0.5025, 0.73, 0.96, 0.1825, 0.4125, 0.64, 0.8675, 0.0925, 0.32, 0.5475, 0.7775, 0, 0.23, 0.4575, 0.685, 0.9125, 0.1375, 0.365, 0.595, 0.8225, 0.0475, 0.275, 0.5025, 0.73, 0.96, 0.1825, 0.4125, 0.64, 0.8675, 0.0925, 0.32, 0.5475, 0.7775],
  "SoftwareVersions": "syngo_MR_B17",
  "SpacingBetweenSlices": 2,
  "StationName": "MASTER",
  "TaskName": "dsp",
  "TotalReadoutTime": 0.0230033,
  "TxRefAmp": 120,
  "dcmmeta_affine": [
    [-2.0, 0.0, 0.0, 105.4527816772461],
    [0.0, 1.9941054582595825, -0.1534380465745926, -102.03459167480469],
    [0.0, 0.1534380465745926, 1.9941054582595825, -37.67299270629883],
    [0.0, 0.0, 0.0, 1.0]
],
  "dcmmeta_reorient_transform": [
    [0.0, -1.0, 0.0, 103.0],
    [1.0, 0.0, 0.0, 0.0],
    [0.0, 0.0, 1.0, 0.0],
    [0.0, 0.0, 0.0, 1.0]
],
  "dcmmeta_shape": [104, 104, 44, 330],
  "dcmmeta_slice_dim": 2,
  "dcmmeta_version": 0.6,
  "global": {
    "const": {
      "AcquisitionMatrix": [104, 0, 0, 104],
      "AngioFlag": "N",
      "BitsAllocated": 16,
      "BitsStored": 12,
      "Columns": 728,
      "EchoNumbers": 1,
      "EchoTime": 20.0,
      "EchoTrainLength": 1,
      "FlipAngle": 30.0,
      "HighBit": 11,
      "ImageOrientationPatient": [1.0, 0.0, 0.0, 0.0, 0.99705275241222, -0.0767190257186],
      "ImagePositionPatient": [-729.45278453827, -725.5191925983, 26.003798287821],
      "ImageType": [
        "ORIGINAL",
        "PRIMARY",
        "M",
        "MB",
        "ND",
        "MOSAIC"
],
      "ImagedNucleus": "1H",
      "ImagingFrequency": 297.229726,
      "InPlanePhaseEncodingDirection": "COL",
      "MRAcquisitionType": "2D",
      "MagneticFieldStrength": 6.98,
      "Manufacturer": "SIEMENS",
      "ManufacturerModelName": "Investigational_Device_7T",
      "Modality": "MR",
      "NumberOfAverages": 1.0,
      "NumberOfPhaseEncodingSteps": 91,
      "PercentPhaseFieldOfView": 100.0,
      "PercentSampling": 100.0,
      "PerformedProcedureStepStartTime": "093742.890000",
      "PhotometricInterpretation": "MONOCHROME2",
      "PixelBandwidth": 1717.0,
      "PixelRepresentation": 0,
      "PixelSpacing": [2.0, 2.0],
      "ProtocolName": "mbep2d_bold_mb2_p3_AP 2iso",
      "RepetitionTime": 1000.0,
      "Rows": 728,
      "SAR": 0.0,
      "SamplesPerPixel": 1,
      "ScanOptions": [
        "PFP",
        "FS"
],
      "ScanningSequence": "EP",
      "SequenceName": "epfid2d1_104",
      "SequenceVariant": [
        "SK",
        "SS"
],
      "SeriesDescription": "mbep2d_bold_mb2_p3_AP 2iso",
      "SeriesNumber": 11,
      "SeriesTime": "100802.781000",
      "SliceLocation": -29.733966940226,
      "SliceThickness": 2.0,
      "SmallestImagePixelValue": 0,
      "SoftwareVersions": "syngo MR B17",
      "SpacingBetweenSlices": 1.9999999902232,
      "SpecificCharacterSet": "ISO_IR 100",
      "StudyID": "1",
      "StudyTime": "093742.828000",
      "TransmitCoilName": "CFMM_8Tx32Rx",
      "VariableFlipAngleFlag": "N",
      "WindowCenter": 0.0,
      "WindowCenterWidthExplanation": "WINDOW1",
      "WindowWidth": 700.0,
      "dBdt": 0.0},
    "slices": {}
  },
  "time": {
    "samples": {
      "AcquisitionNumber": [1, 2, 3, 4, 5, 6, 7, 8, 9, 10, 11, 12, 13, 14, 15, 16, 17, 18, 19, 20, 21, 22, 23, 24, 25, 26, 27, 28, 29, 30, 31, 32, 33, 34, 35, 36, 37, 38, 39, 40, 41, 42, 43, 44, 45, 46, 47, 48, 49, 50, 51, 52, 53, 54, 55, 56, 57, 58, 59, 60, 61, 62, 63, 64, 65, 66, 67, 68, 69, 70, 71, 72, 73, 74, 75, 76, 77, 78, 79, 80, 81, 82, 83, 84, 85, 86, 87, 88, 89, 90, 91, 92, 93, 94, 95, 96, 97, 98, 99, 100, 101, 102, 103, 104, 105, 106, 107, 108, 109, 110, 111, 112, 113, 114, 115, 116, 117, 118, 119, 120, 121, 122, 123, 124, 125, 126, 127, 128, 129, 130, 131, 132, 133, 134, 135, 136, 137, 138, 139, 140, 141, 142, 143, 144, 145, 146, 147, 148, 149, 150, 151, 152, 153, 154, 155, 156, 157, 158, 159, 160, 161, 162, 163, 164, 165, 166, 167, 168, 169, 170, 171, 172, 173, 174, 175, 176, 177, 178, 179, 180, 181, 182, 183, 184, 185, 186, 187, 188, 189, 190, 191, 192, 193, 194, 195, 196, 197, 198, 199, 200, 201, 202, 203, 204, 205, 206, 207, 208, 209, 210, 211, 212, 213, 214, 215, 216, 217, 218, 219, 220, 221, 222, 223, 224, 225, 226, 227, 228, 229, 230, 231, 232, 233, 234, 235, 236, 237, 238, 239, 240, 241, 242, 243, 244, 245, 246, 247, 248, 249, 250, 251, 252, 253, 254, 255, 256, 257, 258, 259, 260, 261, 262, 263, 264, 265, 266, 267, 268, 269, 270, 271, 272, 273, 274, 275, 276, 277, 278, 279, 280, 281, 282, 283, 284, 285, 286, 287, 288, 289, 290, 291, 292, 293, 294, 295, 296, 297, 298, 299, 300, 301, 302, 303, 304, 305, 306, 307, 308, 309, 310, 311, 312, 313, 314, 315, 316, 317, 318, 319, 320, 321, 322, 323, 324, 325, 326, 327, 328, 329, 330],
      "AcquisitionTime": ["100727.585000", "100728.590000", "100729.595000", "100730.597500", "100731.602500", "100732.605000", "100733.610000", "100734.615000", "100735.617500", "100736.622500", "100737.625000", "100738.630000", "100739.635000", "100740.637500", "100741.642500", "100742.645000", "100743.650000", "100744.655000", "100745.657500", "100746.662500", "100747.667500", "100748.670000", "100749.675000", "100750.677500", "100751.682500", "100752.687500", "100753.690000", "100754.695000", "100755.697500", "100756.702500", "100757.707500", "100758.710000", "100759.715000", "100800.717500", "100801.722500", "100802.727500", "100803.730000", "100804.735000", "100805.737500", "100806.742500", "100807.747500", "100808.750000", "100809.755000", "100810.757500", "100811.762500", "100812.767500", "100813.770000", "100814.775000", "100815.777500", "100816.782500", "100817.787500", "100818.790000", "100819.795000", "100820.800000", "100821.802500", "100822.807500", "100823.810000", "100824.815000", "100825.820000", "100826.822500", "100827.827500", "100828.830000", "100829.835000", "100830.840000", "100831.842500", "100832.847500", "100833.850000", "100834.855000", "100835.860000", "100836.862500", "100837.867500", "100838.870000", "100839.875000", "100840.880000", "100841.882500", "100842.887500", "100843.890000", "100844.895000", "100845.900000", "100846.902500", "100847.907500", "100848.910000", "100849.915000", "100850.920000", "100851.922500", "100852.927500", "100853.932500", "100854.935000", "100855.940000", "100856.942500", "100857.947500", "100858.952500", "100859.955000", "100900.960000", "100901.962500", "100902.967500", "100903.972500", "100904.975000", "100905.980000", "100906.982500", "100907.987500", "100908.992500", "100909.995000", "100911.000000", "100912.002500", "100913.007500", "100914.012500", "100915.015000", "100916.020000", "100917.022500", "100918.027500", "100919.032500", "100920.035000", "100921.040000", "100922.045000", "100923.047500", "100924.052500", "100925.055000", "100926.060000", "100927.065000", "100928.067500", "100929.072500", "100930.075000", "100931.080000", "100932.085000", "100933.087500", "100934.092500", "100935.095000", "100936.100000", "100937.105000", "100938.107500", "100939.112500", "100940.115000", "100941.120000", "100942.125000", "100943.127500", "100944.132500", "100945.135000", "100946.140000", "100947.145000", "100948.147500", "100949.152500", "100950.155000", "100951.160000", "100952.165000", "100953.167500", "100954.172500", "100955.177500", "100956.180000", "100957.185000", "100958.187500", "100959.192500", "101000.197500", "101001.200000", "101002.205000", "101003.207500", "101004.212500", "101005.217500", "101006.220000", "101007.225000", "101008.227500", "101009.232500", "101010.237500", "101011.240000", "101012.245000", "101013.247500", "101014.252500", "101015.257500", "101016.260000", "101017.265000", "101018.267500", "101019.272500", "101020.277500", "101021.280000", "101022.285000", "101023.290000", "101024.292500", "101025.297500", "101026.300000", "101027.305000", "101028.310000", "101029.312500", "101030.317500", "101031.320000", "101032.325000", "101033.330000", "101034.332500", "101035.337500", "101036.340000", "101037.345000", "101038.350000", "101039.352500", "101040.357500", "101041.360000", "101042.365000", "101043.370000", "101044.372500", "101045.377500", "101046.380000", "101047.385000", "101048.390000", "101049.392500", "101050.397500", "101051.400000", "101052.405000", "101053.410000", "101054.412500", "101055.417500", "101056.422500", "101057.425000", "101058.430000", "101059.432500", "101100.437500", "101101.442500", "101102.445000", "101103.450000", "101104.452500", "101105.457500", "101106.462500", "101107.465000", "101108.470000", "101109.472500", "101110.477500", "101111.482500", "101112.485000", "101113.490000", "101114.492500", "101115.497500", "101116.502500", "101117.505000", "101118.510000", "101119.512500", "101120.517500", "101121.522500", "101122.525000", "101123.530000", "101124.532500", "101125.537500", "101126.542500", "101127.545000", "101128.550000", "101129.555000", "101130.557500", "101131.562500", "101132.565000", "101133.570000", "101134.575000", "101135.577500", "101136.582500", "101137.585000", "101138.590000", "101139.595000", "101140.597500", "101141.602500", "101142.605000", "101143.610000", "101144.615000", "101145.617500", "101146.622500", "101147.625000", "101148.630000", "101149.635000", "101150.637500", "101151.642500", "101152.645000", "101153.650000", "101154.655000", "101155.657500", "101156.662500", "101157.667500", "101158.670000", "101159.675000", "101200.677500", "101201.682500", "101202.687500", "101203.690000", "101204.695000", "101205.697500", "101206.702500", "101207.707500", "101208.710000", "101209.715000", "101210.717500", "101211.722500", "101212.727500", "101213.730000", "101214.735000", "101215.737500", "101216.742500", "101217.747500", "101218.750000", "101219.755000", "101220.757500", "101221.762500", "101222.767500", "101223.770000", "101224.775000", "101225.777500", "101226.782500", "101227.787500", "101228.790000", "101229.795000", "101230.800000", "101231.802500", "101232.807500", "101233.810000", "101234.815000", "101235.820000", "101236.822500", "101237.827500", "101238.830000", "101239.835000", "101240.840000", "101241.842500", "101242.847500", "101243.850000", "101244.855000", "101245.860000", "101246.862500", "101247.867500", "101248.870000", "101249.875000", "101250.880000", "101251.882500", "101252.887500", "101253.890000", "101254.895000", "101255.900000", "101256.902500", "101257.907500"],
      "ContentTime": ["100802.781000", "100802.796000", "100802.796000", "100802.796000", "100802.796000", "100802.796000", "100802.796000", "100802.812000", "100802.812000", "100802.812000", "100802.812000", "100802.812000", "100802.812000", "100802.828000", "100802.828000", "100802.828000", "100802.828000", "100802.828000", "100802.843000", "100802.843000", "100802.843000", "100802.843000", "100802.843000", "100802.843000", "100802.843000", "100802.859000", "100802.859000", "100802.859000", "100802.859000", "100802.859000", "100802.859000", "100802.859000", "100802.875000", "100822.734000", "100822.734000", "100822.750000", "100822.750000", "100822.750000", "100822.750000", "100822.750000", "100822.765000", "100822.765000", "100822.765000", "100822.765000", "100822.765000", "100822.765000", "100822.765000", "100822.781000", "100822.781000", "100822.781000", "100822.781000", "100822.781000", "100822.781000", "100842.734000", "100842.734000", "100842.734000", "100842.750000", "100842.750000", "100842.750000", "100842.750000", "100842.750000", "100842.750000", "100842.750000", "100842.765000", "100842.765000", "100842.765000", "100842.765000", "100842.765000", "100842.765000", "100842.765000", "100842.781000", "100842.781000", "100842.781000", "100902.734000", "100902.734000", "100902.734000", "100902.734000", "100902.734000", "100902.750000", "100902.750000", "100902.750000", "100902.750000", "100902.750000", "100902.750000", "100902.750000", "100902.765000", "100902.765000", "100902.765000", "100902.765000", "100902.765000", "100902.765000", "100902.765000", "100902.781000", "100922.734000", "100922.734000", "100922.750000", "100922.750000", "100922.750000", "100922.750000", "100922.765000", "100922.765000", "100922.765000", "100922.781000", "100922.781000", "100922.781000", "100922.781000", "100922.781000", "100922.796000", "100922.796000", "100922.796000", "100922.796000", "100922.796000", "100922.796000", "100942.734000", "100942.734000", "100942.734000", "100942.734000", "100942.734000", "100942.750000", "100942.750000", "100942.750000", "100942.750000", "100942.750000", "100942.765000", "100942.765000", "100942.765000", "100942.765000", "100942.765000", "100942.765000", "100942.765000", "100942.781000", "100942.781000", "100942.781000", "101002.734000", "101002.734000", "101002.750000", "101002.750000", "101002.750000", "101002.750000", "101002.765000", "101002.765000", "101002.765000", "101002.765000", "101002.765000", "101002.781000", "101002.781000", "101002.781000", "101002.781000", "101002.781000", "101002.781000", "101002.781000", "101002.796000", "101002.796000", "101022.734000", "101022.734000", "101022.734000", "101022.734000", "101022.734000", "101022.750000", "101022.750000", "101022.750000", "101022.750000", "101022.750000", "101022.750000", "101022.750000", "101022.765000", "101022.765000", "101022.765000", "101022.765000", "101022.765000", "101022.765000", "101022.765000", "101022.781000", "101042.734000", "101042.734000", "101042.750000", "101042.750000", "101042.750000", "101042.750000", "101042.750000", "101042.765000", "101042.765000", "101042.765000", "101042.781000", "101042.781000", "101042.781000", "101042.781000", "101042.781000", "101042.781000", "101042.796000", "101042.796000", "101042.796000", "101042.796000", "101102.734000", "101102.734000", "101102.734000", "101102.734000", "101102.734000", "101102.750000", "101102.750000", "101102.750000", "101102.750000", "101102.750000", "101102.750000", "101102.750000", "101102.765000", "101102.765000", "101102.765000", "101102.765000", "101102.765000", "101102.765000", "101102.781000", "101102.781000", "101122.734000", "101122.734000", "101122.734000", "101122.734000", "101122.734000", "101122.750000", "101122.750000", "101122.750000", "101122.750000", "101122.750000", "101122.750000", "101122.750000", "101122.765000", "101122.765000", "101122.765000", "101122.765000", "101122.765000", "101122.765000", "101122.765000", "101122.781000", "101142.734000", "101142.734000", "101142.734000", "101142.750000", "101142.750000", "101142.750000", "101142.750000", "101142.750000", "101142.765000", "101142.765000", "101142.765000", "101142.765000", "101142.765000", "101142.765000", "101142.781000", "101142.781000", "101142.781000", "101142.781000", "101142.781000", "101142.796000", "101202.734000", "101202.734000", "101202.734000", "101202.734000", "101202.750000", "101202.750000", "101202.750000", "101202.750000", "101202.750000", "101202.750000", "101202.750000", "101202.765000", "101202.765000", "101202.765000", "101202.765000", "101202.765000", "101202.765000", "101202.765000", "101202.781000", "101202.781000", "101222.734000", "101222.734000", "101222.734000", "101222.734000", "101222.750000", "101222.750000", "101222.750000", "101222.750000", "101222.750000", "101222.750000", "101222.750000", "101222.765000", "101222.765000", "101222.765000", "101222.765000", "101222.765000", "101222.765000", "101222.765000", "101222.781000", "101222.781000", "101242.734000", "101242.734000", "101242.734000", "101242.734000", "101242.734000", "101242.750000", "101242.750000", "101242.750000", "101242.750000", "101242.750000", "101242.750000", "101242.750000", "101242.765000", "101242.765000", "101242.765000", "101242.765000", "101242.765000", "101242.781000", "101242.781000", "101242.781000", "101304.093000", "101304.093000", "101304.093000", "101304.109000", "101304.109000", "101304.109000", "101304.109000", "101304.109000", "101304.125000", "101304.125000", "101304.125000", "101304.125000", "101304.140000", "101304.140000", "101304.140000", "101304.140000", "101304.140000"],
      "InstanceCreationTime": ["100802.781000", "100802.796000", "100802.796000", "100802.796000", "100802.796000", "100802.796000", "100802.796000", "100802.812000", "100802.812000", "100802.812000", "100802.812000", "100802.812000", "100802.812000", "100802.828000", "100802.828000", "100802.828000", "100802.828000", "100802.828000", "100802.843000", "100802.843000", "100802.843000", "100802.843000", "100802.843000", "100802.843000", "100802.843000", "100802.859000", "100802.859000", "100802.859000", "100802.859000", "100802.859000", "100802.859000", "100802.859000", "100802.875000", "100822.734000", "100822.734000", "100822.750000", "100822.750000", "100822.750000", "100822.750000", "100822.750000", "100822.765000", "100822.765000", "100822.765000", "100822.765000", "100822.765000", "100822.765000", "100822.765000", "100822.781000", "100822.781000", "100822.781000", "100822.781000", "100822.781000", "100822.781000", "100842.734000", "100842.734000", "100842.734000", "100842.750000", "100842.750000", "100842.750000", "100842.750000", "100842.750000", "100842.750000", "100842.750000", "100842.765000", "100842.765000", "100842.765000", "100842.765000", "100842.765000", "100842.765000", "100842.765000", "100842.781000", "100842.781000", "100842.781000", "100902.734000", "100902.734000", "100902.734000", "100902.734000", "100902.734000", "100902.750000", "100902.750000", "100902.750000", "100902.750000", "100902.750000", "100902.750000", "100902.750000", "100902.765000", "100902.765000", "100902.765000", "100902.765000", "100902.765000", "100902.765000", "100902.765000", "100902.781000", "100922.734000", "100922.734000", "100922.750000", "100922.750000", "100922.750000", "100922.750000", "100922.765000", "100922.765000", "100922.765000", "100922.781000", "100922.781000", "100922.781000", "100922.781000", "100922.781000", "100922.796000", "100922.796000", "100922.796000", "100922.796000", "100922.796000", "100922.796000", "100942.734000", "100942.734000", "100942.734000", "100942.734000", "100942.734000", "100942.750000", "100942.750000", "100942.750000", "100942.750000", "100942.750000", "100942.765000", "100942.765000", "100942.765000", "100942.765000", "100942.765000", "100942.765000", "100942.765000", "100942.781000", "100942.781000", "100942.781000", "101002.734000", "101002.734000", "101002.750000", "101002.750000", "101002.750000", "101002.750000", "101002.765000", "101002.765000", "101002.765000", "101002.765000", "101002.765000", "101002.781000", "101002.781000", "101002.781000", "101002.781000", "101002.781000", "101002.781000", "101002.781000", "101002.796000", "101002.796000", "101022.734000", "101022.734000", "101022.734000", "101022.734000", "101022.734000", "101022.750000", "101022.750000", "101022.750000", "101022.750000", "101022.750000", "101022.750000", "101022.750000", "101022.765000", "101022.765000", "101022.765000", "101022.765000", "101022.765000", "101022.765000", "101022.765000", "101022.781000", "101042.734000", "101042.734000", "101042.750000", "101042.750000", "101042.750000", "101042.750000", "101042.750000", "101042.765000", "101042.765000", "101042.765000", "101042.781000", "101042.781000", "101042.781000", "101042.781000", "101042.781000", "101042.781000", "101042.796000", "101042.796000", "101042.796000", "101042.796000", "101102.734000", "101102.734000", "101102.734000", "101102.734000", "101102.734000", "101102.750000", "101102.750000", "101102.750000", "101102.750000", "101102.750000", "101102.750000", "101102.750000", "101102.765000", "101102.765000", "101102.765000", "101102.765000", "101102.765000", "101102.765000", "101102.781000", "101102.781000", "101122.734000", "101122.734000", "101122.734000", "101122.734000", "101122.734000", "101122.750000", "101122.750000", "101122.750000", "101122.750000", "101122.750000", "101122.750000", "101122.750000", "101122.765000", "101122.765000", "101122.765000", "101122.765000", "101122.765000", "101122.765000", "101122.765000", "101122.781000", "101142.734000", "101142.734000", "101142.734000", "101142.750000", "101142.750000", "101142.750000", "101142.750000", "101142.750000", "101142.765000", "101142.765000", "101142.765000", "101142.765000", "101142.765000", "101142.765000", "101142.781000", "101142.781000", "101142.781000", "101142.781000", "101142.781000", "101142.796000", "101202.734000", "101202.734000", "101202.734000", "101202.734000", "101202.750000", "101202.750000", "101202.750000", "101202.750000", "101202.750000", "101202.750000", "101202.750000", "101202.765000", "101202.765000", "101202.765000", "101202.765000", "101202.765000", "101202.765000", "101202.765000", "101202.781000", "101202.781000", "101222.734000", "101222.734000", "101222.734000", "101222.734000", "101222.750000", "101222.750000", "101222.750000", "101222.750000", "101222.750000", "101222.750000", "101222.750000", "101222.765000", "101222.765000", "101222.765000", "101222.765000", "101222.765000", "101222.765000", "101222.765000", "101222.781000", "101222.781000", "101242.734000", "101242.734000", "101242.734000", "101242.734000", "101242.734000", "101242.750000", "101242.750000", "101242.750000", "101242.750000", "101242.750000", "101242.750000", "101242.750000", "101242.765000", "101242.765000", "101242.765000", "101242.765000", "101242.765000", "101242.781000", "101242.781000", "101242.781000", "101304.093000", "101304.093000", "101304.093000", "101304.109000", "101304.109000", "101304.109000", "101304.109000", "101304.109000", "101304.125000", "101304.125000", "101304.125000", "101304.125000", "101304.140000", "101304.140000", "101304.140000", "101304.140000", "101304.140000"],
      "InstanceNumber": [1, 2, 3, 4, 5, 6, 7, 8, 9, 10, 11, 12, 13, 14, 15, 16, 17, 18, 19, 20, 21, 22, 23, 24, 25, 26, 27, 28, 29, 30, 31, 32, 33, 34, 35, 36, 37, 38, 39, 40, 41, 42, 43, 44, 45, 46, 47, 48, 49, 50, 51, 52, 53, 54, 55, 56, 57, 58, 59, 60, 61, 62, 63, 64, 65, 66, 67, 68, 69, 70, 71, 72, 73, 74, 75, 76, 77, 78, 79, 80, 81, 82, 83, 84, 85, 86, 87, 88, 89, 90, 91, 92, 93, 94, 95, 96, 97, 98, 99, 100, 101, 102, 103, 104, 105, 106, 107, 108, 109, 110, 111, 112, 113, 114, 115, 116, 117, 118, 119, 120, 121, 122, 123, 124, 125, 126, 127, 128, 129, 130, 131, 132, 133, 134, 135, 136, 137, 138, 139, 140, 141, 142, 143, 144, 145, 146, 147, 148, 149, 150, 151, 152, 153, 154, 155, 156, 157, 158, 159, 160, 161, 162, 163, 164, 165, 166, 167, 168, 169, 170, 171, 172, 173, 174, 175, 176, 177, 178, 179, 180, 181, 182, 183, 184, 185, 186, 187, 188, 189, 190, 191, 192, 193, 194, 195, 196, 197, 198, 199, 200, 201, 202, 203, 204, 205, 206, 207, 208, 209, 210, 211, 212, 213, 214, 215, 216, 217, 218, 219, 220, 221, 222, 223, 224, 225, 226, 227, 228, 229, 230, 231, 232, 233, 234, 235, 236, 237, 238, 239, 240, 241, 242, 243, 244, 245, 246, 247, 248, 249, 250, 251, 252, 253, 254, 255, 256, 257, 258, 259, 260, 261, 262, 263, 264, 265, 266, 267, 268, 269, 270, 271, 272, 273, 274, 275, 276, 277, 278, 279, 280, 281, 282, 283, 284, 285, 286, 287, 288, 289, 290, 291, 292, 293, 294, 295, 296, 297, 298, 299, 300, 301, 302, 303, 304, 305, 306, 307, 308, 309, 310, 311, 312, 313, 314, 315, 316, 317, 318, 319, 320, 321, 322, 323, 324, 325, 326, 327, 328, 329, 330],
      "LargestImagePixelValue": [1879, 1877, 1886, 1869, 1882, 1845, 1836, 1868, 1829, 1839, 1862, 1861, 1811, 1893, 1824, 1853, 1824, 1846, 1876, 1841, 1816, 1815, 1837, 1828, 1851, 1828, 1825, 1779, 1790, 1808, 1811, 1803, 1843, 1821, 1819, 1849, 1831, 1828, 1861, 1829, 1780, 1846, 1877, 1849, 1779, 1788, 1760, 1781, 1837, 1817, 1798, 1814, 1838, 1788, 1817, 1826, 1804, 1817, 1814, 1820, 1779, 1800, 1831, 1792, 1791, 1805, 1838, 1796, 1785, 1745, 1740, 1763, 1793, 1771, 1770, 1758, 1779, 1798, 1797, 1802, 1788, 1781, 1800, 1795, 1779, 1784, 1819, 1783, 1774, 1792, 1820, 1785, 1767, 1820, 1772, 1779, 1799, 1801, 1778, 1785, 1809, 1818, 1829, 1803, 1815, 1816, 1795, 1831, 1801, 1787, 1796, 1835, 1812, 1835, 1792, 1816, 1798, 1822, 1819, 1809, 1811, 1765, 1785, 1795, 1782, 1764, 1851, 1771, 1798, 1812, 1779, 1804, 1816, 1803, 1812, 1798, 1812, 1796, 1795, 1811, 1786, 1786, 1806, 1815, 1811, 1815, 1807, 1837, 1825, 1806, 1815, 1817, 1834, 1826, 1865, 1788, 1790, 1803, 1780, 1769, 1774, 1835, 1845, 1816, 1803, 1784, 1807, 1785, 1831, 1828, 1796, 1844, 1809, 1827, 1845, 1797, 1822, 1813, 1822, 1774, 1777, 1801, 1818, 1808, 1806, 1766, 1799, 1803, 1821, 1816, 1836, 1829, 1869, 1837, 1845, 1837, 1840, 1843, 1818, 1813, 1825, 1800, 1847, 1837, 1867, 1805, 1843, 1823, 1817, 1859, 1825, 1853, 1866, 1860, 1842, 1810, 1853, 1845, 1864, 1837, 1830, 1866, 1859, 1853, 1840, 1838, 1890, 1844, 1877, 1808, 1779, 1856, 1832, 1876, 1852, 1838, 1843, 1849, 1881, 1874, 1849, 1847, 1846, 1833, 1851, 1823, 1869, 1873, 1821, 1857, 1857, 1846, 1829, 1836, 1837, 1785, 1829, 1804, 1869, 1836, 1870, 1828, 1833, 1861, 1875, 1846, 1832, 1886, 1881, 1824, 1827, 1846, 1919, 1889, 1893, 1842, 1866, 1867, 1900, 1872, 1853, 1803, 1858, 1872, 1837, 1882, 1894, 1859, 1849, 1889, 1829, 1825, 1857, 1834, 1860, 1812, 1858, 1868, 1856, 1847, 1872, 1850, 1876, 1870, 1836, 1863, 1841, 1840, 1844, 1838, 1832, 1843, 1846, 1869, 1837, 1859, 1861, 1880, 1830, 1863, 1811, 1845, 1852, 1805, 1825, 1831, 1836, 1875, 1849, 1809]
    },
    "slices": {}
  }
}