{
  "AcquisitionMatrixPE": 104,
  "AcquisitionNumber": 1,
  "AcquisitionTime": "10:29:1.390000",
  "BandwidthPerPixelPhaseEncode": 43.054,
  "BaseResolution": 104,
  "CoilString": "C:E1_2",
  "ConversionSoftware": "dcm2niix",
  "ConversionSoftwareVersion": "v1.0.20191031",
  "DerivedVendorReportedEchoSpacing": 0.000669999,
  "DeviceSerialNumber": "18932",
  "DwellTime": 2.8e-06,
  "EchoTime": 0.02,
  "EffectiveEchoSpacing": 0.000223333,
  "FlipAngle": 30,
  "ImageComments": "Unaliased_MB2_PE2",
  "ImageOrientationPatientDICOM": [1, 0, 0, 0, 0.997053, -0.076719],
  "ImageType": [
    "ORIGINAL",
    "PRIMARY",
    "M",
    "MB",
    "ND",
    "MOSAIC"
],
  "ImagingFrequency": 297.23,
  "InPlanePhaseEncodingDirectionDICOM": "COL",
  "InstitutionAddress": "Richmond_Street_North_1151_London_409EF2_Ontario_CA_N6A_5B7",
  "InstitutionName": "Robarts_Reserch_Institute",
  "InstitutionalDepartmentName": "Department",
  "MRAcquisitionType": "2D",
  "MagneticFieldStrength": 6.98,
  "Manufacturer": "Siemens",
  "ManufacturersModelName": "Investigational_Device_7T",
  "Modality": "MR",
  "MultibandAccelerationFactor": 2,
  "ParallelReductionFactorInPlane": 3,
  "PartialFourier": 0.875,
  "PatientPosition": "HFS",
  "PercentPhaseFOV": 100,
  "PhaseEncodingDirection": "j-",
  "PhaseEncodingSteps": 91,
  "PhaseResolution": 1,
  "PixelBandwidth": 1717,
  "ProcedureStepDescription": "Diedrichsen_SeqRep4",
  "ProtocolName": "mbep2d_bold_mb2_p3_AP_2iso",
  "PulseSequenceDetails": "%CustomerSeq%_cmrr_mbep2d_bold",
  "ReceiveCoilName": "CFMM_8Tx32Rx",
  "ReconMatrixPE": 104,
  "RefLinesPE": 36,
  "RepetitionTime": 1,
  "ScanOptions": "PFP_FS",
  "ScanningSequence": "EP",
  "SequenceName": "epfid2d1_104",
  "SequenceVariant": "SK_SS",
  "SeriesDescription": "mbep2d_bold_mb2_p3_AP_2iso",
  "SeriesNumber": 17,
  "ShimSetting": [-51, 1858, 411, 290, 239, -341, -216, -80],
  "SliceThickness": 2,
  "SliceTiming": [0, 0.2275, 0.455, 0.685, 0.9125, 0.1375, 0.365, 0.5925, 0.82, 0.045, 0.2725, 0.5025, 0.73, 0.9575, 0.1825, 0.41, 0.6375, 0.8675, 0.09, 0.32, 0.5475, 0.775, 0, 0.2275, 0.455, 0.685, 0.9125, 0.1375, 0.365, 0.5925, 0.82, 0.045, 0.2725, 0.5025, 0.73, 0.9575, 0.1825, 0.41, 0.6375, 0.8675, 0.09, 0.32, 0.5475, 0.775],
  "SoftwareVersions": "syngo_MR_B17",
  "SpacingBetweenSlices": 2,
  "StationName": "MASTER",
  "TaskName": "dsp",
  "TotalReadoutTime": 0.0230033,
  "TxRefAmp": 120,
  "dcmmeta_affine": [
    [-2.0, 0.0, 0.0, 105.4527816772461],
    [0.0, 1.9941054582595825, -0.1534380465745926, -102.03459167480469],
    [0.0, 0.1534380465745926, 1.9941054582595825, -37.67299270629883],
    [0.0, 0.0, 0.0, 1.0]
],
  "dcmmeta_reorient_transform": [
    [0.0, -1.0, 0.0, 103.0],
    [1.0, 0.0, 0.0, 0.0],
    [0.0, 0.0, 1.0, 0.0],
    [0.0, 0.0, 0.0, 1.0]
],
  "dcmmeta_shape": [104, 104, 44, 330],
  "dcmmeta_slice_dim": 2,
  "dcmmeta_version": 0.6,
  "global": {
    "const": {
      "AcquisitionMatrix": [104, 0, 0, 104],
      "AngioFlag": "N",
      "BitsAllocated": 16,
      "BitsStored": 12,
      "Columns": 728,
      "EchoNumbers": 1,
      "EchoTime": 20.0,
      "EchoTrainLength": 1,
      "FlipAngle": 30.0,
      "HighBit": 11,
      "ImageOrientationPatient": [1.0, 0.0, 0.0, 0.0, 0.99705275241222, -0.0767190257186],
      "ImagePositionPatient": [-729.45278453827, -725.5191925983, 26.003798287821],
      "ImageType": [
        "ORIGINAL",
        "PRIMARY",
        "M",
        "MB",
        "ND",
        "MOSAIC"
],
      "ImagedNucleus": "1H",
      "ImagingFrequency": 297.229758,
      "InPlanePhaseEncodingDirection": "COL",
      "MRAcquisitionType": "2D",
      "MagneticFieldStrength": 6.98,
      "Manufacturer": "SIEMENS",
      "ManufacturerModelName": "Investigational_Device_7T",
      "Modality": "MR",
      "NumberOfAverages": 1.0,
      "NumberOfPhaseEncodingSteps": 91,
      "PercentPhaseFieldOfView": 100.0,
      "PercentSampling": 100.0,
      "PerformedProcedureStepStartTime": "093742.890000",
      "PhotometricInterpretation": "MONOCHROME2",
      "PixelBandwidth": 1717.0,
      "PixelRepresentation": 0,
      "PixelSpacing": [2.0, 2.0],
      "ProtocolName": "mbep2d_bold_mb2_p3_AP 2iso",
      "RepetitionTime": 1000.0,
      "Rows": 728,
      "SAR": 0.0,
      "SamplesPerPixel": 1,
      "ScanOptions": [
        "PFP",
        "FS"
],
      "ScanningSequence": "EP",
      "SequenceName": "epfid2d1_104",
      "SequenceVariant": [
        "SK",
        "SS"
],
      "SeriesDescription": "mbep2d_bold_mb2_p3_AP 2iso",
      "SeriesNumber": 17,
      "SeriesTime": "102942.765000",
      "SliceLocation": -29.733966940226,
      "SliceThickness": 2.0,
      "SmallestImagePixelValue": 0,
      "SoftwareVersions": "syngo MR B17",
      "SpacingBetweenSlices": 1.9999999902232,
      "SpecificCharacterSet": "ISO_IR 100",
      "StudyID": "1",
      "StudyTime": "093742.828000",
      "TransmitCoilName": "CFMM_8Tx32Rx",
      "VariableFlipAngleFlag": "N",
      "WindowCenter": 0.0,
      "WindowCenterWidthExplanation": "WINDOW1",
      "WindowWidth": 582.0,
      "dBdt": 0.0},
    "slices": {}
  },
  "time": {
    "samples": {
      "AcquisitionNumber": [1, 2, 3, 4, 5, 6, 7, 8, 9, 10, 11, 12, 13, 14, 15, 16, 17, 18, 19, 20, 21, 22, 23, 24, 25, 26, 27, 28, 29, 30, 31, 32, 33, 34, 35, 36, 37, 38, 39, 40, 41, 42, 43, 44, 45, 46, 47, 48, 49, 50, 51, 52, 53, 54, 55, 56, 57, 58, 59, 60, 61, 62, 63, 64, 65, 66, 67, 68, 69, 70, 71, 72, 73, 74, 75, 76, 77, 78, 79, 80, 81, 82, 83, 84, 85, 86, 87, 88, 89, 90, 91, 92, 93, 94, 95, 96, 97, 98, 99, 100, 101, 102, 103, 104, 105, 106, 107, 108, 109, 110, 111, 112, 113, 114, 115, 116, 117, 118, 119, 120, 121, 122, 123, 124, 125, 126, 127, 128, 129, 130, 131, 132, 133, 134, 135, 136, 137, 138, 139, 140, 141, 142, 143, 144, 145, 146, 147, 148, 149, 150, 151, 152, 153, 154, 155, 156, 157, 158, 159, 160, 161, 162, 163, 164, 165, 166, 167, 168, 169, 170, 171, 172, 173, 174, 175, 176, 177, 178, 179, 180, 181, 182, 183, 184, 185, 186, 187, 188, 189, 190, 191, 192, 193, 194, 195, 196, 197, 198, 199, 200, 201, 202, 203, 204, 205, 206, 207, 208, 209, 210, 211, 212, 213, 214, 215, 216, 217, 218, 219, 220, 221, 222, 223, 224, 225, 226, 227, 228, 229, 230, 231, 232, 233, 234, 235, 236, 237, 238, 239, 240, 241, 242, 243, 244, 245, 246, 247, 248, 249, 250, 251, 252, 253, 254, 255, 256, 257, 258, 259, 260, 261, 262, 263, 264, 265, 266, 267, 268, 269, 270, 271, 272, 273, 274, 275, 276, 277, 278, 279, 280, 281, 282, 283, 284, 285, 286, 287, 288, 289, 290, 291, 292, 293, 294, 295, 296, 297, 298, 299, 300, 301, 302, 303, 304, 305, 306, 307, 308, 309, 310, 311, 312, 313, 314, 315, 316, 317, 318, 319, 320, 321, 322, 323, 324, 325, 326, 327, 328, 329, 330],
      "AcquisitionTime": ["102901.390000", "102902.395000", "102903.397500", "102904.402500", "102905.405000", "102906.410000", "102907.415000", "102908.417500", "102909.422500", "102910.425000", "102911.430000", "102912.435000", "102913.437500", "102914.442500", "102915.445000", "102916.450000", "102917.455000", "102918.457500", "102919.462500", "102920.465000", "102921.470000", "102922.475000", "102923.477500", "102924.482500", "102925.487500", "102926.490000", "102927.495000", "102928.497500", "102929.502500", "102930.507500", "102931.510000", "102932.515000", "102933.517500", "102934.522500", "102935.527500", "102936.530000", "102937.535000", "102938.537500", "102939.542500", "102940.547500", "102941.550000", "102942.555000", "102943.557500", "102944.562500", "102945.567500", "102946.570000", "102947.575000", "102948.577500", "102949.582500", "102950.587500", "102951.590000", "102952.595000", "102953.600000", "102954.602500", "102955.607500", "102956.610000", "102957.615000", "102958.620000", "102959.622500", "103000.627500", "103001.630000", "103002.635000", "103003.640000", "103004.642500", "103005.647500", "103006.650000", "103007.655000", "103008.660000", "103009.662500", "103010.667500", "103011.670000", "103012.675000", "103013.680000", "103014.682500", "103015.687500", "103016.690000", "103017.695000", "103018.700000", "103019.702500", "103020.707500", "103021.710000", "103022.715000", "103023.720000", "103024.722500", "103025.727500", "103026.732500", "103027.735000", "103028.740000", "103029.742500", "103030.747500", "103031.752500", "103032.755000", "103033.760000", "103034.762500", "103035.767500", "103036.772500", "103037.775000", "103038.780000", "103039.782500", "103040.787500", "103041.792500", "103042.795000", "103043.800000", "103044.802500", "103045.807500", "103046.812500", "103047.815000", "103048.820000", "103049.822500", "103050.827500", "103051.832500", "103052.835000", "103053.840000", "103054.842500", "103055.847500", "103056.852500", "103057.855000", "103058.860000", "103059.865000", "103100.867500", "103101.872500", "103102.875000", "103103.880000", "103104.885000", "103105.887500", "103106.892500", "103107.895000", "103108.900000", "103109.905000", "103110.907500", "103111.912500", "103112.915000", "103113.920000", "103114.925000", "103115.927500", "103116.932500", "103117.935000", "103118.940000", "103119.945000", "103120.947500", "103121.952500", "103122.955000", "103123.960000", "103124.965000", "103125.967500", "103126.972500", "103127.977500", "103128.980000", "103129.985000", "103130.987500", "103131.992500", "103132.997500", "103134.000000", "103135.005000", "103136.007500", "103137.012500", "103138.017500", "103139.020000", "103140.025000", "103141.027500", "103142.032500", "103143.037500", "103144.040000", "103145.045000", "103146.047500", "103147.052500", "103148.057500", "103149.060000", "103150.065000", "103151.067500", "103152.072500", "103153.077500", "103154.080000", "103155.085000", "103156.087500", "103157.092500", "103158.097500", "103159.100000", "103200.105000", "103201.110000", "103202.112500", "103203.117500", "103204.120000", "103205.125000", "103206.130000", "103207.132500", "103208.137500", "103209.140000", "103210.145000", "103211.150000", "103212.152500", "103213.157500", "103214.160000", "103215.165000", "103216.170000", "103217.172500", "103218.177500", "103219.180000", "103220.185000", "103221.190000", "103222.192500", "103223.197500", "103224.200000", "103225.205000", "103226.210000", "103227.212500", "103228.217500", "103229.220000", "103230.225000", "103231.230000", "103232.232500", "103233.237500", "103234.242500", "103235.245000", "103236.250000", "103237.252500", "103238.257500", "103239.262500", "103240.265000", "103241.270000", "103242.272500", "103243.277500", "103244.282500", "103245.285000", "103246.290000", "103247.292500", "103248.297500", "103249.302500", "103250.305000", "103251.310000", "103252.312500", "103253.317500", "103254.322500", "103255.325000", "103256.330000", "103257.332500", "103258.337500", "103259.342500", "103300.345000", "103301.350000", "103302.355000", "103303.357500", "103304.362500", "103305.365000", "103306.370000", "103307.375000", "103308.377500", "103309.382500", "103310.385000", "103311.390000", "103312.395000", "103313.397500", "103314.402500", "103315.405000", "103316.410000", "103317.415000", "103318.417500", "103319.422500", "103320.425000", "103321.430000", "103322.435000", "103323.437500", "103324.442500", "103325.445000", "103326.450000", "103327.455000", "103328.457500", "103329.462500", "103330.465000", "103331.470000", "103332.475000", "103333.477500", "103334.482500", "103335.487500", "103336.490000", "103337.495000", "103338.497500", "103339.502500", "103340.507500", "103341.510000", "103342.515000", "103343.517500", "103344.522500", "103345.527500", "103346.530000", "103347.535000", "103348.537500", "103349.542500", "103350.547500", "103351.550000", "103352.555000", "103353.557500", "103354.562500", "103355.567500", "103356.570000", "103357.575000", "103358.577500", "103359.582500", "103400.587500", "103401.590000", "103402.595000", "103403.600000", "103404.602500", "103405.607500", "103406.610000", "103407.615000", "103408.620000", "103409.622500", "103410.627500", "103411.630000", "103412.635000", "103413.640000", "103414.642500", "103415.647500", "103416.650000", "103417.655000", "103418.660000", "103419.662500", "103420.667500", "103421.670000", "103422.675000", "103423.680000", "103424.682500", "103425.687500", "103426.690000", "103427.695000", "103428.700000", "103429.702500", "103430.707500", "103431.710000"],
      "ContentTime": ["102942.765000", "102942.781000", "102942.781000", "102942.781000", "102942.781000", "102942.781000", "102942.781000", "102942.781000", "102942.796000", "102942.796000", "102942.796000", "102942.796000", "102942.796000", "102942.796000", "102942.796000", "102942.812000", "102942.812000", "102942.812000", "102942.812000", "102942.812000", "102942.812000", "102942.812000", "102942.812000", "102942.828000", "102942.828000", "102942.828000", "102942.828000", "102942.828000", "102942.843000", "102942.843000", "102942.843000", "102942.843000", "102942.843000", "102942.843000", "102942.843000", "102942.859000", "102942.859000", "102942.859000", "102942.859000", "103002.734000", "103002.734000", "103002.734000", "103002.734000", "103002.750000", "103002.750000", "103002.750000", "103002.750000", "103002.750000", "103002.750000", "103002.750000", "103002.750000", "103002.765000", "103002.765000", "103002.765000", "103002.765000", "103002.765000", "103002.765000", "103002.781000", "103002.781000", "103022.734000", "103022.734000", "103022.734000", "103022.734000", "103022.734000", "103022.750000", "103022.750000", "103022.750000", "103022.750000", "103022.750000", "103022.750000", "103022.750000", "103022.750000", "103022.765000", "103022.765000", "103022.765000", "103022.765000", "103022.765000", "103022.765000", "103022.781000", "103042.734000", "103042.734000", "103042.734000", "103042.734000", "103042.750000", "103042.750000", "103042.750000", "103042.750000", "103042.750000", "103042.765000", "103042.765000", "103042.765000", "103042.765000", "103042.765000", "103042.765000", "103042.781000", "103042.781000", "103042.781000", "103042.781000", "103042.781000", "103102.734000", "103102.734000", "103102.734000", "103102.734000", "103102.734000", "103102.750000", "103102.750000", "103102.750000", "103102.750000", "103102.750000", "103102.750000", "103102.750000", "103102.765000", "103102.765000", "103102.765000", "103102.765000", "103102.765000", "103102.765000", "103102.765000", "103102.765000", "103122.734000", "103122.734000", "103122.734000", "103122.734000", "103122.734000", "103122.750000", "103122.750000", "103122.750000", "103122.750000", "103122.750000", "103122.750000", "103122.750000", "103122.750000", "103122.765000", "103122.765000", "103122.765000", "103122.765000", "103122.765000", "103122.765000", "103122.765000", "103142.734000", "103142.734000", "103142.734000", "103142.734000", "103142.734000", "103142.750000", "103142.750000", "103142.750000", "103142.750000", "103142.765000", "103142.765000", "103142.765000", "103142.765000", "103142.765000", "103142.765000", "103142.765000", "103142.765000", "103142.781000", "103142.781000", "103142.781000", "103202.734000", "103202.734000", "103202.734000", "103202.734000", "103202.734000", "103202.750000", "103202.750000", "103202.750000", "103202.750000", "103202.750000", "103202.750000", "103202.750000", "103202.750000", "103202.765000", "103202.765000", "103202.765000", "103202.765000", "103202.765000", "103202.765000", "103202.765000", "103222.734000", "103222.734000", "103222.734000", "103222.734000", "103222.734000", "103222.750000", "103222.750000", "103222.750000", "103222.750000", "103222.750000", "103222.750000", "103222.750000", "103222.750000", "103222.765000", "103222.765000", "103222.765000", "103222.765000", "103222.765000", "103222.765000", "103222.765000", "103242.734000", "103242.734000", "103242.734000", "103242.734000", "103242.734000", "103242.750000", "103242.750000", "103242.750000", "103242.750000", "103242.750000", "103242.750000", "103242.750000", "103242.765000", "103242.765000", "103242.765000", "103242.765000", "103242.765000", "103242.765000", "103242.765000", "103242.765000", "103302.734000", "103302.734000", "103302.734000", "103302.734000", "103302.734000", "103302.750000", "103302.750000", "103302.750000", "103302.750000", "103302.750000", "103302.750000", "103302.765000", "103302.765000", "103302.765000", "103302.765000", "103302.781000", "103302.781000", "103302.781000", "103302.781000", "103302.781000", "103322.734000", "103322.734000", "103322.734000", "103322.734000", "103322.734000", "103322.750000", "103322.750000", "103322.750000", "103322.750000", "103322.750000", "103322.750000", "103322.750000", "103322.750000", "103322.765000", "103322.765000", "103322.765000", "103322.765000", "103322.765000", "103322.765000", "103322.765000", "103342.734000", "103342.734000", "103342.734000", "103342.734000", "103342.734000", "103342.750000", "103342.750000", "103342.750000", "103342.750000", "103342.750000", "103342.750000", "103342.765000", "103342.765000", "103342.765000", "103342.765000", "103342.765000", "103342.765000", "103342.765000", "103342.781000", "103342.781000", "103402.734000", "103402.734000", "103402.734000", "103402.734000", "103402.734000", "103402.750000", "103402.750000", "103402.750000", "103402.750000", "103402.750000", "103402.750000", "103402.750000", "103402.765000", "103402.765000", "103402.765000", "103402.765000", "103402.765000", "103402.765000", "103402.765000", "103402.781000", "103422.734000", "103422.734000", "103422.734000", "103422.734000", "103422.734000", "103422.750000", "103422.750000", "103422.750000", "103422.750000", "103422.750000", "103422.750000", "103422.750000", "103422.765000", "103422.765000", "103422.765000", "103422.765000", "103422.765000", "103422.765000", "103422.781000", "103422.781000", "103437.984000", "103437.984000", "103437.984000", "103438.000000", "103438.000000", "103438.000000", "103438.000000", "103438.000000", "103438.000000", "103438.000000", "103438.015000"],
      "InstanceCreationTime": ["102942.765000", "102942.781000", "102942.781000", "102942.781000", "102942.781000", "102942.781000", "102942.781000", "102942.781000", "102942.796000", "102942.796000", "102942.796000", "102942.796000", "102942.796000", "102942.796000", "102942.796000", "102942.812000", "102942.812000", "102942.812000", "102942.812000", "102942.812000", "102942.812000", "102942.812000", "102942.812000", "102942.828000", "102942.828000", "102942.828000", "102942.828000", "102942.828000", "102942.843000", "102942.843000", "102942.843000", "102942.843000", "102942.843000", "102942.843000", "102942.843000", "102942.859000", "102942.859000", "102942.859000", "102942.859000", "103002.734000", "103002.734000", "103002.734000", "103002.734000", "103002.750000", "103002.750000", "103002.750000", "103002.750000", "103002.750000", "103002.750000", "103002.750000", "103002.750000", "103002.765000", "103002.765000", "103002.765000", "103002.765000", "103002.765000", "103002.765000", "103002.781000", "103002.781000", "103022.734000", "103022.734000", "103022.734000", "103022.734000", "103022.734000", "103022.750000", "103022.750000", "103022.750000", "103022.750000", "103022.750000", "103022.750000", "103022.750000", "103022.750000", "103022.765000", "103022.765000", "103022.765000", "103022.765000", "103022.765000", "103022.765000", "103022.781000", "103042.734000", "103042.734000", "103042.734000", "103042.734000", "103042.750000", "103042.750000", "103042.750000", "103042.750000", "103042.750000", "103042.765000", "103042.765000", "103042.765000", "103042.765000", "103042.765000", "103042.765000", "103042.781000", "103042.781000", "103042.781000", "103042.781000", "103042.781000", "103102.734000", "103102.734000", "103102.734000", "103102.734000", "103102.734000", "103102.750000", "103102.750000", "103102.750000", "103102.750000", "103102.750000", "103102.750000", "103102.750000", "103102.765000", "103102.765000", "103102.765000", "103102.765000", "103102.765000", "103102.765000", "103102.765000", "103102.765000", "103122.734000", "103122.734000", "103122.734000", "103122.734000", "103122.734000", "103122.750000", "103122.750000", "103122.750000", "103122.750000", "103122.750000", "103122.750000", "103122.750000", "103122.750000", "103122.765000", "103122.765000", "103122.765000", "103122.765000", "103122.765000", "103122.765000", "103122.765000", "103142.734000", "103142.734000", "103142.734000", "103142.734000", "103142.734000", "103142.750000", "103142.750000", "103142.750000", "103142.750000", "103142.765000", "103142.765000", "103142.765000", "103142.765000", "103142.765000", "103142.765000", "103142.765000", "103142.765000", "103142.781000", "103142.781000", "103142.781000", "103202.734000", "103202.734000", "103202.734000", "103202.734000", "103202.734000", "103202.750000", "103202.750000", "103202.750000", "103202.750000", "103202.750000", "103202.750000", "103202.750000", "103202.750000", "103202.765000", "103202.765000", "103202.765000", "103202.765000", "103202.765000", "103202.765000", "103202.765000", "103222.734000", "103222.734000", "103222.734000", "103222.734000", "103222.734000", "103222.750000", "103222.750000", "103222.750000", "103222.750000", "103222.750000", "103222.750000", "103222.750000", "103222.750000", "103222.765000", "103222.765000", "103222.765000", "103222.765000", "103222.765000", "103222.765000", "103222.765000", "103242.734000", "103242.734000", "103242.734000", "103242.734000", "103242.734000", "103242.750000", "103242.750000", "103242.750000", "103242.750000", "103242.750000", "103242.750000", "103242.750000", "103242.765000", "103242.765000", "103242.765000", "103242.765000", "103242.765000", "103242.765000", "103242.765000", "103242.765000", "103302.734000", "103302.734000", "103302.734000", "103302.734000", "103302.734000", "103302.750000", "103302.750000", "103302.750000", "103302.750000", "103302.750000", "103302.750000", "103302.765000", "103302.765000", "103302.765000", "103302.765000", "103302.781000", "103302.781000", "103302.781000", "103302.781000", "103302.781000", "103322.734000", "103322.734000", "103322.734000", "103322.734000", "103322.734000", "103322.750000", "103322.750000", "103322.750000", "103322.750000", "103322.750000", "103322.750000", "103322.750000", "103322.750000", "103322.765000", "103322.765000", "103322.765000", "103322.765000", "103322.765000", "103322.765000", "103322.765000", "103342.734000", "103342.734000", "103342.734000", "103342.734000", "103342.734000", "103342.750000", "103342.750000", "103342.750000", "103342.750000", "103342.750000", "103342.750000", "103342.765000", "103342.765000", "103342.765000", "103342.765000", "103342.765000", "103342.765000", "103342.765000", "103342.781000", "103342.781000", "103402.734000", "103402.734000", "103402.734000", "103402.734000", "103402.734000", "103402.750000", "103402.750000", "103402.750000", "103402.750000", "103402.750000", "103402.750000", "103402.750000", "103402.765000", "103402.765000", "103402.765000", "103402.765000", "103402.765000", "103402.765000", "103402.765000", "103402.781000", "103422.734000", "103422.734000", "103422.734000", "103422.734000", "103422.734000", "103422.750000", "103422.750000", "103422.750000", "103422.750000", "103422.750000", "103422.750000", "103422.750000", "103422.765000", "103422.765000", "103422.765000", "103422.765000", "103422.765000", "103422.765000", "103422.781000", "103422.781000", "103437.984000", "103437.984000", "103437.984000", "103438.000000", "103438.000000", "103438.000000", "103438.000000", "103438.000000", "103438.000000", "103438.000000", "103438.015000"],
      "InstanceNumber": [1, 2, 3, 4, 5, 6, 7, 8, 9, 10, 11, 12, 13, 14, 15, 16, 17, 18, 19, 20, 21, 22, 23, 24, 25, 26, 27, 28, 29, 30, 31, 32, 33, 34, 35, 36, 37, 38, 39, 40, 41, 42, 43, 44, 45, 46, 47, 48, 49, 50, 51, 52, 53, 54, 55, 56, 57, 58, 59, 60, 61, 62, 63, 64, 65, 66, 67, 68, 69, 70, 71, 72, 73, 74, 75, 76, 77, 78, 79, 80, 81, 82, 83, 84, 85, 86, 87, 88, 89, 90, 91, 92, 93, 94, 95, 96, 97, 98, 99, 100, 101, 102, 103, 104, 105, 106, 107, 108, 109, 110, 111, 112, 113, 114, 115, 116, 117, 118, 119, 120, 121, 122, 123, 124, 125, 126, 127, 128, 129, 130, 131, 132, 133, 134, 135, 136, 137, 138, 139, 140, 141, 142, 143, 144, 145, 146, 147, 148, 149, 150, 151, 152, 153, 154, 155, 156, 157, 158, 159, 160, 161, 162, 163, 164, 165, 166, 167, 168, 169, 170, 171, 172, 173, 174, 175, 176, 177, 178, 179, 180, 181, 182, 183, 184, 185, 186, 187, 188, 189, 190, 191, 192, 193, 194, 195, 196, 197, 198, 199, 200, 201, 202, 203, 204, 205, 206, 207, 208, 209, 210, 211, 212, 213, 214, 215, 216, 217, 218, 219, 220, 221, 222, 223, 224, 225, 226, 227, 228, 229, 230, 231, 232, 233, 234, 235, 236, 237, 238, 239, 240, 241, 242, 243, 244, 245, 246, 247, 248, 249, 250, 251, 252, 253, 254, 255, 256, 257, 258, 259, 260, 261, 262, 263, 264, 265, 266, 267, 268, 269, 270, 271, 272, 273, 274, 275, 276, 277, 278, 279, 280, 281, 282, 283, 284, 285, 286, 287, 288, 289, 290, 291, 292, 293, 294, 295, 296, 297, 298, 299, 300, 301, 302, 303, 304, 305, 306, 307, 308, 309, 310, 311, 312, 313, 314, 315, 316, 317, 318, 319, 320, 321, 322, 323, 324, 325, 326, 327, 328, 329, 330],
      "LargestImagePixelValue": [1842, 1812, 1780, 1792, 1756, 1779, 1782, 1759, 1764, 1793, 1797, 1803, 1801, 1808, 1809, 1811, 1783, 1777, 1815, 1796, 1794, 1809, 1781, 1781, 1757, 1781, 1793, 1807, 1813, 1780, 1787, 1784, 1787, 1781, 1792, 1794, 1775, 1802, 1805, 1831, 1800, 1788, 1780, 1801, 1768, 1787, 1776, 1789, 1788, 1808, 1784, 1780, 1792, 1770, 1802, 1794, 1795, 1788, 1801, 1776, 1817, 1809, 1829, 1793, 1818, 1814, 1792, 1800, 1776, 1779, 1797, 1770, 1775, 1788, 1781, 1792, 1764, 1779, 1777, 1791, 1771, 1783, 1748, 1747, 1749, 1764, 1806, 1769, 1780, 1792, 1786, 1779, 1799, 1790, 1796, 1786, 1781, 1759, 1768, 1752, 1770, 1785, 1769, 1767, 1789, 1771, 1770, 1786, 1773, 1798, 1800, 1770, 1769, 1777, 1783, 1774, 1746, 1749, 1761, 1743, 1762, 1772, 1734, 1757, 1775, 1711, 1738, 1717, 1748, 1746, 1746, 1708, 1721, 1696, 1729, 1708, 1709, 1732, 1728, 1729, 1721, 1731, 1723, 1718, 1730, 1739, 1729, 1732, 1725, 1752, 1732, 1718, 1729, 1740, 1752, 1765, 1757, 1736, 1754, 1776, 1746, 1788, 1752, 1765, 1744, 1784, 1755, 1777, 1753, 1764, 1751, 1747, 1730, 1771, 1750, 1738, 1753, 1745, 1740, 1766, 1784, 1742, 1743, 1753, 1756, 1746, 1740, 1733, 1730, 1745, 1744, 1744, 1733, 1737, 1759, 1752, 1738, 1735, 1762, 1747, 1733, 1755, 1757, 1769, 1748, 1733, 1724, 1716, 1713, 1721, 1717, 1753, 1755, 1781, 1773, 1778, 1700, 1742, 1771, 1814, 1776, 1752, 1736, 1736, 1765, 1761, 1764, 1731, 1712, 1759, 1760, 1729, 1759, 1722, 1742, 1741, 1747, 1737, 1782, 1754, 1737, 1734, 1732, 1757, 1758, 1760, 1725, 1747, 1746, 1725, 1774, 1755, 1723, 1748, 1731, 1737, 1742, 1742, 1736, 1734, 1736, 1748, 1717, 1783, 1765, 1761, 1741, 1747, 1768, 1758, 1767, 1750, 1754, 1768, 1756, 1760, 1750, 1764, 1743, 1769, 1765, 1733, 1745, 1771, 1767, 1739, 1741, 1742, 1741, 1757, 1773, 1747, 1731, 1759, 1758, 1757, 1756, 1748, 1747, 1745, 1763, 1743, 1743, 1744, 1746, 1753, 1741, 1742, 1736, 1800, 1769, 1726, 1722, 1734, 1780, 1733, 1735, 1738, 1746, 1753, 1752, 1738, 1754, 1749, 1748, 1740, 1729, 1736, 1754, 1756]
    },
    "slices": {}
  }
}