{
  "AcquisitionMatrixPE": 104,
  "AcquisitionNumber": 1,
  "AcquisitionTime": "14:35:37.677500",
  "BandwidthPerPixelPhaseEncode": 43.054,
  "BaseResolution": 104,
  "CoilString": "C:E1_2",
  "ConversionSoftware": "dcm2niix",
  "ConversionSoftwareVersion": "v1.0.20191031",
  "DerivedVendorReportedEchoSpacing": 0.000669999,
  "DeviceSerialNumber": "18932",
  "DwellTime": 2.8e-06,
  "EchoTime": 0.02,
  "EffectiveEchoSpacing": 0.000223333,
  "FlipAngle": 30,
  "ImageComments": "Unaliased_MB2_PE2",
  "ImageOrientationPatientDICOM": [1, 0, 0, 0, 0.999048, -0.0436194],
  "ImageType": [
    "ORIGINAL",
    "PRIMARY",
    "M",
    "MB",
    "ND",
    "MOSAIC"
],
  "ImagingFrequency": 297.229,
  "InPlanePhaseEncodingDirectionDICOM": "COL",
  "InstitutionAddress": "Richmond_Street_North_1151_London_409EF2_Ontario_CA_N6A_5B7",
  "InstitutionName": "Robarts_Reserch_Institute",
  "InstitutionalDepartmentName": "Department",
  "MRAcquisitionType": "2D",
  "MagneticFieldStrength": 6.98,
  "Manufacturer": "Siemens",
  "ManufacturersModelName": "Investigational_Device_7T",
  "Modality": "MR",
  "MultibandAccelerationFactor": 2,
  "ParallelReductionFactorInPlane": 3,
  "PartialFourier": 0.875,
  "PatientPosition": "HFS",
  "PercentPhaseFOV": 100,
  "PhaseEncodingDirection": "j-",
  "PhaseEncodingSteps": 91,
  "PhaseResolution": 1,
  "PixelBandwidth": 1717,
  "ProcedureStepDescription": "Diedrichsen_SeqRep4",
  "ProtocolName": "mbep2d_bold_mb2_p3_AP_2iso",
  "PulseSequenceDetails": "%CustomerSeq%_cmrr_mbep2d_bold",
  "ReceiveCoilName": "CFMM_8Tx32Rx",
  "ReconMatrixPE": 104,
  "RefLinesPE": 36,
  "RepetitionTime": 1,
  "ScanOptions": "PFP_FS",
  "ScanningSequence": "EP",
  "SequenceName": "epfid2d1_104",
  "SequenceVariant": "SK_SS",
  "SeriesDescription": "mbep2d_bold_mb2_p3_AP_2iso",
  "SeriesNumber": 29,
  "ShimSetting": [30, 2004, 104, 1434, 84, 146, 137, -93],
  "SliceThickness": 2,
  "SliceTiming": [0, 0.2275, 0.455, 0.6825, 0.91, 0.135, 0.365, 0.5925, 0.82, 0.045, 0.2725, 0.5, 0.7275, 0.9575, 0.1825, 0.41, 0.6375, 0.865, 0.09, 0.3175, 0.545, 0.775, 0, 0.2275, 0.455, 0.6825, 0.91, 0.135, 0.365, 0.5925, 0.82, 0.045, 0.2725, 0.5, 0.7275, 0.9575, 0.1825, 0.41, 0.6375, 0.865, 0.09, 0.3175, 0.545, 0.775],
  "SoftwareVersions": "syngo_MR_B17",
  "SpacingBetweenSlices": 2,
  "StationName": "MASTER",
  "TaskName": "dsp",
  "TotalReadoutTime": 0.0230033,
  "TxRefAmp": 120,
  "dcmmeta_affine": [
    [-2.0, 0.0, 0.0, 108.35835266113281],
    [0.0, 1.9980964660644531, -0.08723877370357513, -102.20863342285156],
    [0.0, 0.08723877370357513, 1.9980963468551636, -18.40200424194336],
    [0.0, 0.0, 0.0, 1.0]
],
  "dcmmeta_reorient_transform": [
    [0.0, -1.0, 0.0, 103.0],
    [1.0, 0.0, 0.0, 0.0],
    [0.0, 0.0, 1.0, 0.0],
    [0.0, 0.0, 0.0, 1.0]
],
  "dcmmeta_shape": [104, 104, 44, 330],
  "dcmmeta_slice_dim": 2,
  "dcmmeta_version": 0.6,
  "global": {
    "const": {
      "AcquisitionMatrix": [104, 0, 0, 104],
      "AngioFlag": "N",
      "BitsAllocated": 16,
      "BitsStored": 12,
      "Columns": 728,
      "EchoNumbers": 1,
      "EchoTime": 20.0,
      "EchoTrainLength": 1,
      "FlipAngle": 30.0,
      "HighBit": 11,
      "ImageOrientationPatient": [1.0, 0.0, 0.0, 0.0, 0.99904822159351, -0.0436193870985],
      "ImagePositionPatient": [-732.35835361481, -727.0013941103, 17.802086354127],
      "ImageType": [
        "ORIGINAL",
        "PRIMARY",
        "M",
        "MB",
        "ND",
        "MOSAIC"
],
      "ImagedNucleus": "1H",
      "ImagingFrequency": 297.228801,
      "InPlanePhaseEncodingDirection": "COL",
      "MRAcquisitionType": "2D",
      "MagneticFieldStrength": 6.98,
      "Manufacturer": "SIEMENS",
      "ManufacturerModelName": "Investigational_Device_7T",
      "Modality": "MR",
      "NumberOfAverages": 1.0,
      "NumberOfPhaseEncodingSteps": 91,
      "PercentPhaseFieldOfView": 100.0,
      "PercentSampling": 100.0,
      "PerformedProcedureStepStartTime": "132553.421000",
      "PhotometricInterpretation": "MONOCHROME2",
      "PixelBandwidth": 1717.0,
      "PixelRepresentation": 0,
      "PixelSpacing": [2.0, 2.0],
      "ProtocolName": "mbep2d_bold_mb2_p3_AP 2iso",
      "RepetitionTime": 1000.0,
      "Rows": 728,
      "SAR": 0.0,
      "SamplesPerPixel": 1,
      "ScanOptions": [
        "PFP",
        "FS"
],
      "ScanningSequence": "EP",
      "SequenceName": "epfid2d1_104",
      "SequenceVariant": [
        "SK",
        "SS"
],
      "SeriesDescription": "mbep2d_bold_mb2_p3_AP 2iso",
      "SeriesNumber": 29,
      "SeriesTime": "143615.484000",
      "SliceLocation": -13.926212518134,
      "SliceThickness": 2.0,
      "SmallestImagePixelValue": 0,
      "SoftwareVersions": "syngo MR B17",
      "SpacingBetweenSlices": 1.9999999344314,
      "SpecificCharacterSet": "ISO_IR 100",
      "StudyID": "1",
      "StudyTime": "132553.359000",
      "TransmitCoilName": "CFMM_8Tx32Rx",
      "VariableFlipAngleFlag": "N",
      "WindowCenterWidthExplanation": "Algo1",
      "dBdt": 0.0},
    "slices": {}
  },
  "time": {
    "samples": {
      "AcquisitionNumber": [1, 2, 3, 4, 5, 6, 7, 8, 9, 10, 11, 12, 13, 14, 15, 16, 17, 18, 19, 20, 21, 22, 23, 24, 25, 26, 27, 28, 29, 30, 31, 32, 33, 34, 35, 36, 37, 38, 39, 40, 41, 42, 43, 44, 45, 46, 47, 48, 49, 50, 51, 52, 53, 54, 55, 56, 57, 58, 59, 60, 61, 62, 63, 64, 65, 66, 67, 68, 69, 70, 71, 72, 73, 74, 75, 76, 77, 78, 79, 80, 81, 82, 83, 84, 85, 86, 87, 88, 89, 90, 91, 92, 93, 94, 95, 96, 97, 98, 99, 100, 101, 102, 103, 104, 105, 106, 107, 108, 109, 110, 111, 112, 113, 114, 115, 116, 117, 118, 119, 120, 121, 122, 123, 124, 125, 126, 127, 128, 129, 130, 131, 132, 133, 134, 135, 136, 137, 138, 139, 140, 141, 142, 143, 144, 145, 146, 147, 148, 149, 150, 151, 152, 153, 154, 155, 156, 157, 158, 159, 160, 161, 162, 163, 164, 165, 166, 167, 168, 169, 170, 171, 172, 173, 174, 175, 176, 177, 178, 179, 180, 181, 182, 183, 184, 185, 186, 187, 188, 189, 190, 191, 192, 193, 194, 195, 196, 197, 198, 199, 200, 201, 202, 203, 204, 205, 206, 207, 208, 209, 210, 211, 212, 213, 214, 215, 216, 217, 218, 219, 220, 221, 222, 223, 224, 225, 226, 227, 228, 229, 230, 231, 232, 233, 234, 235, 236, 237, 238, 239, 240, 241, 242, 243, 244, 245, 246, 247, 248, 249, 250, 251, 252, 253, 254, 255, 256, 257, 258, 259, 260, 261, 262, 263, 264, 265, 266, 267, 268, 269, 270, 271, 272, 273, 274, 275, 276, 277, 278, 279, 280, 281, 282, 283, 284, 285, 286, 287, 288, 289, 290, 291, 292, 293, 294, 295, 296, 297, 298, 299, 300, 301, 302, 303, 304, 305, 306, 307, 308, 309, 310, 311, 312, 313, 314, 315, 316, 317, 318, 319, 320, 321, 322, 323, 324, 325, 326, 327, 328, 329, 330],
      "AcquisitionTime": ["143537.677500", "143538.680000", "143539.685000", "143540.687500", "143541.692500", "143542.697500", "143543.700000", "143544.705000", "143545.707500", "143546.712500", "143547.717500", "143548.720000", "143549.725000", "143550.727500", "143551.732500", "143552.737500", "143553.740000", "143554.745000", "143555.747500", "143556.752500", "143557.757500", "143558.760000", "143559.765000", "143600.767500", "143601.772500", "143602.777500", "143603.780000", "143604.785000", "143605.790000", "143606.792500", "143607.797500", "143608.800000", "143609.805000", "143610.810000", "143611.812500", "143612.817500", "143613.820000", "143614.825000", "143615.830000", "143616.832500", "143617.837500", "143618.840000", "143619.845000", "143620.850000", "143621.852500", "143622.857500", "143623.860000", "143624.865000", "143625.870000", "143626.872500", "143627.877500", "143628.880000", "143629.885000", "143630.890000", "143631.892500", "143632.897500", "143633.902500", "143634.905000", "143635.910000", "143636.912500", "143637.917500", "143638.922500", "143639.925000", "143640.930000", "143641.932500", "143642.937500", "143643.942500", "143644.945000", "143645.950000", "143646.952500", "143647.957500", "143648.962500", "143649.965000", "143650.970000", "143651.972500", "143652.977500", "143653.982500", "143654.985000", "143655.990000", "143656.992500", "143657.997500", "143659.002500", "143700.005000", "143701.010000", "143702.012500", "143703.017500", "143704.022500", "143705.025000", "143706.030000", "143707.035000", "143708.037500", "143709.042500", "143710.045000", "143711.050000", "143712.055000", "143713.057500", "143714.062500", "143715.065000", "143716.070000", "143717.075000", "143718.077500", "143719.082500", "143720.085000", "143721.090000", "143722.095000", "143723.097500", "143724.102500", "143725.105000", "143726.110000", "143727.115000", "143728.117500", "143729.122500", "143730.125000", "143731.130000", "143732.135000", "143733.137500", "143734.142500", "143735.147500", "143736.150000", "143737.155000", "143738.157500", "143739.162500", "143740.167500", "143741.170000", "143742.175000", "143743.177500", "143744.182500", "143745.187500", "143746.190000", "143747.195000", "143748.197500", "143749.202500", "143750.207500", "143751.210000", "143752.215000", "143753.217500", "143754.222500", "143755.227500", "143756.230000", "143757.235000", "143758.237500", "143759.242500", "143800.247500", "143801.250000", "143802.255000", "143803.257500", "143804.262500", "143805.267500", "143806.270000", "143807.275000", "143808.280000", "143809.282500", "143810.287500", "143811.290000", "143812.295000", "143813.300000", "143814.302500", "143815.307500", "143816.310000", "143817.315000", "143818.320000", "143819.322500", "143820.327500", "143821.330000", "143822.335000", "143823.340000", "143824.342500", "143825.347500", "143826.350000", "143827.355000", "143828.360000", "143829.362500", "143830.367500", "143831.370000", "143832.375000", "143833.380000", "143834.382500", "143835.387500", "143836.390000", "143837.395000", "143838.400000", "143839.402500", "143840.407500", "143841.412500", "143842.415000", "143843.420000", "143844.422500", "143845.427500", "143846.432500", "143847.435000", "143848.440000", "143849.442500", "143850.447500", "143851.452500", "143852.455000", "143853.460000", "143854.462500", "143855.467500", "143856.472500", "143857.475000", "143858.480000", "143859.482500", "143900.487500", "143901.492500", "143902.495000", "143903.500000", "143904.502500", "143905.507500", "143906.512500", "143907.515000", "143908.520000", "143909.525000", "143910.527500", "143911.532500", "143912.535000", "143913.540000", "143914.545000", "143915.547500", "143916.552500", "143917.555000", "143918.560000", "143919.565000", "143920.567500", "143921.572500", "143922.575000", "143923.580000", "143924.585000", "143925.587500", "143926.592500", "143927.595000", "143928.600000", "143929.605000", "143930.607500", "143931.612500", "143932.615000", "143933.620000", "143934.625000", "143935.627500", "143936.632500", "143937.635000", "143938.640000", "143939.645000", "143940.647500", "143941.652500", "143942.657500", "143943.660000", "143944.665000", "143945.667500", "143946.672500", "143947.677500", "143948.680000", "143949.685000", "143950.687500", "143951.692500", "143952.697500", "143953.700000", "143954.705000", "143955.707500", "143956.712500", "143957.717500", "143958.720000", "143959.725000", "144000.727500", "144001.732500", "144002.737500", "144003.740000", "144004.745000", "144005.747500", "144006.752500", "144007.757500", "144008.760000", "144009.765000", "144010.767500", "144011.772500", "144012.777500", "144013.780000", "144014.785000", "144015.790000", "144016.792500", "144017.797500", "144018.800000", "144019.805000", "144020.810000", "144021.812500", "144022.817500", "144023.820000", "144024.825000", "144025.830000", "144026.832500", "144027.837500", "144028.840000", "144029.845000", "144030.850000", "144031.852500", "144032.857500", "144033.860000", "144034.865000", "144035.870000", "144036.872500", "144037.877500", "144038.880000", "144039.885000", "144040.890000", "144041.892500", "144042.897500", "144043.902500", "144044.905000", "144045.910000", "144046.912500", "144047.917500", "144048.922500", "144049.925000", "144050.930000", "144051.932500", "144052.937500", "144053.942500", "144054.945000", "144055.950000", "144056.952500", "144057.957500", "144058.962500", "144059.965000", "144100.970000", "144101.972500", "144102.977500", "144103.982500", "144104.985000", "144105.990000", "144106.992500", "144107.997500"],
      "ContentTime": ["143615.484000", "143615.484000", "143615.500000", "143615.500000", "143615.515000", "143615.515000", "143615.515000", "143615.515000", "143615.515000", "143615.531000", "143615.531000", "143615.531000", "143615.531000", "143615.531000", "143615.531000", "143615.531000", "143615.546000", "143615.546000", "143615.562000", "143615.562000", "143615.562000", "143615.562000", "143615.562000", "143615.562000", "143615.578000", "143615.578000", "143615.578000", "143615.578000", "143615.578000", "143615.578000", "143615.593000", "143615.593000", "143615.593000", "143615.593000", "143615.609000", "143615.609000", "143635.437000", "143635.437000", "143635.437000", "143635.453000", "143635.453000", "143635.453000", "143635.453000", "143635.453000", "143635.453000", "143635.453000", "143635.468000", "143635.468000", "143635.468000", "143635.468000", "143635.468000", "143635.468000", "143635.484000", "143635.484000", "143635.484000", "143635.484000", "143655.437000", "143655.437000", "143655.437000", "143655.453000", "143655.453000", "143655.453000", "143655.453000", "143655.453000", "143655.453000", "143655.453000", "143655.468000", "143655.468000", "143655.468000", "143655.468000", "143655.468000", "143655.468000", "143655.468000", "143655.468000", "143655.484000", "143655.484000", "143715.437000", "143715.437000", "143715.437000", "143715.437000", "143715.453000", "143715.453000", "143715.468000", "143715.468000", "143715.468000", "143715.468000", "143715.468000", "143715.468000", "143715.484000", "143715.484000", "143715.484000", "143715.484000", "143715.484000", "143715.484000", "143715.484000", "143715.500000", "143735.437000", "143735.437000", "143735.437000", "143735.437000", "143735.437000", "143735.453000", "143735.453000", "143735.453000", "143735.453000", "143735.453000", "143735.453000", "143735.453000", "143735.453000", "143735.468000", "143735.468000", "143735.468000", "143735.468000", "143735.468000", "143735.468000", "143735.468000", "143755.437000", "143755.437000", "143755.437000", "143755.437000", "143755.437000", "143755.437000", "143755.453000", "143755.453000", "143755.453000", "143755.453000", "143755.453000", "143755.468000", "143755.468000", "143755.468000", "143755.468000", "143755.468000", "143755.468000", "143755.468000", "143755.484000", "143755.484000", "143815.437000", "143815.437000", "143815.437000", "143815.437000", "143815.437000", "143815.453000", "143815.453000", "143815.468000", "143815.468000", "143815.468000", "143815.468000", "143815.468000", "143815.468000", "143815.484000", "143815.484000", "143815.484000", "143815.484000", "143815.484000", "143815.484000", "143815.484000", "143835.437000", "143835.437000", "143835.437000", "143835.437000", "143835.437000", "143835.453000", "143835.453000", "143835.453000", "143835.453000", "143835.453000", "143835.468000", "143835.484000", "143835.484000", "143835.484000", "143835.484000", "143835.484000", "143835.484000", "143835.484000", "143835.500000", "143835.500000", "143855.437000", "143855.437000", "143855.453000", "143855.453000", "143855.453000", "143855.453000", "143855.453000", "143855.453000", "143855.453000", "143855.468000", "143855.468000", "143855.468000", "143855.468000", "143855.468000", "143855.484000", "143855.484000", "143855.484000", "143855.484000", "143855.484000", "143855.484000", "143915.437000", "143915.437000", "143915.437000", "143915.453000", "143915.453000", "143915.453000", "143915.453000", "143915.468000", "143915.468000", "143915.468000", "143915.468000", "143915.484000", "143915.484000", "143915.484000", "143915.484000", "143915.484000", "143915.484000", "143915.484000", "143915.484000", "143915.500000", "143935.437000", "143935.437000", "143935.437000", "143935.437000", "143935.437000", "143935.453000", "143935.453000", "143935.453000", "143935.453000", "143935.453000", "143935.453000", "143935.453000", "143935.453000", "143935.468000", "143935.468000", "143935.468000", "143935.468000", "143935.468000", "143935.468000", "143935.468000", "143955.437000", "143955.437000", "143955.437000", "143955.437000", "143955.437000", "143955.453000", "143955.453000", "143955.453000", "143955.453000", "143955.453000", "143955.453000", "143955.468000", "143955.468000", "143955.468000", "143955.468000", "143955.468000", "143955.468000", "143955.468000", "143955.484000", "143955.484000", "144015.437000", "144015.437000", "144015.437000", "144015.437000", "144015.437000", "144015.453000", "144015.453000", "144015.453000", "144015.453000", "144015.453000", "144015.453000", "144015.453000", "144015.453000", "144015.468000", "144015.468000", "144015.468000", "144015.468000", "144015.468000", "144015.468000", "144015.468000", "144035.437000", "144035.437000", "144035.437000", "144035.437000", "144035.437000", "144035.453000", "144035.453000", "144035.453000", "144035.453000", "144035.453000", "144035.453000", "144035.453000", "144035.468000", "144035.468000", "144035.468000", "144035.468000", "144035.468000", "144035.468000", "144035.468000", "144035.468000", "144055.437000", "144055.437000", "144055.437000", "144055.437000", "144055.437000", "144055.453000", "144055.453000", "144055.453000", "144055.453000", "144055.453000", "144055.453000", "144055.468000", "144055.468000", "144055.468000", "144055.468000", "144055.468000", "144055.468000", "144055.468000", "144055.484000", "144055.484000", "144114.078000", "144114.078000", "144114.078000", "144114.078000", "144114.078000", "144114.078000", "144114.093000", "144114.093000", "144114.093000", "144114.093000", "144114.093000", "144114.093000", "144114.109000", "144114.109000"],
      "InstanceCreationTime": ["143615.484000", "143615.484000", "143615.500000", "143615.500000", "143615.515000", "143615.515000", "143615.515000", "143615.515000", "143615.515000", "143615.531000", "143615.531000", "143615.531000", "143615.531000", "143615.531000", "143615.531000", "143615.531000", "143615.546000", "143615.546000", "143615.562000", "143615.562000", "143615.562000", "143615.562000", "143615.562000", "143615.562000", "143615.578000", "143615.578000", "143615.578000", "143615.578000", "143615.578000", "143615.578000", "143615.593000", "143615.593000", "143615.593000", "143615.593000", "143615.609000", "143615.609000", "143635.437000", "143635.437000", "143635.437000", "143635.453000", "143635.453000", "143635.453000", "143635.453000", "143635.453000", "143635.453000", "143635.453000", "143635.468000", "143635.468000", "143635.468000", "143635.468000", "143635.468000", "143635.468000", "143635.484000", "143635.484000", "143635.484000", "143635.484000", "143655.437000", "143655.437000", "143655.437000", "143655.453000", "143655.453000", "143655.453000", "143655.453000", "143655.453000", "143655.453000", "143655.453000", "143655.468000", "143655.468000", "143655.468000", "143655.468000", "143655.468000", "143655.468000", "143655.468000", "143655.468000", "143655.484000", "143655.484000", "143715.437000", "143715.437000", "143715.437000", "143715.437000", "143715.453000", "143715.453000", "143715.468000", "143715.468000", "143715.468000", "143715.468000", "143715.468000", "143715.468000", "143715.484000", "143715.484000", "143715.484000", "143715.484000", "143715.484000", "143715.484000", "143715.484000", "143715.500000", "143735.437000", "143735.437000", "143735.437000", "143735.437000", "143735.437000", "143735.453000", "143735.453000", "143735.453000", "143735.453000", "143735.453000", "143735.453000", "143735.453000", "143735.453000", "143735.468000", "143735.468000", "143735.468000", "143735.468000", "143735.468000", "143735.468000", "143735.468000", "143755.437000", "143755.437000", "143755.437000", "143755.437000", "143755.437000", "143755.437000", "143755.453000", "143755.453000", "143755.453000", "143755.453000", "143755.453000", "143755.468000", "143755.468000", "143755.468000", "143755.468000", "143755.468000", "143755.468000", "143755.468000", "143755.484000", "143755.484000", "143815.437000", "143815.437000", "143815.437000", "143815.437000", "143815.437000", "143815.453000", "143815.453000", "143815.468000", "143815.468000", "143815.468000", "143815.468000", "143815.468000", "143815.468000", "143815.484000", "143815.484000", "143815.484000", "143815.484000", "143815.484000", "143815.484000", "143815.484000", "143835.437000", "143835.437000", "143835.437000", "143835.437000", "143835.437000", "143835.453000", "143835.453000", "143835.453000", "143835.453000", "143835.453000", "143835.468000", "143835.484000", "143835.484000", "143835.484000", "143835.484000", "143835.484000", "143835.484000", "143835.484000", "143835.500000", "143835.500000", "143855.437000", "143855.437000", "143855.453000", "143855.453000", "143855.453000", "143855.453000", "143855.453000", "143855.453000", "143855.453000", "143855.468000", "143855.468000", "143855.468000", "143855.468000", "143855.468000", "143855.484000", "143855.484000", "143855.484000", "143855.484000", "143855.484000", "143855.484000", "143915.437000", "143915.437000", "143915.437000", "143915.453000", "143915.453000", "143915.453000", "143915.453000", "143915.468000", "143915.468000", "143915.468000", "143915.468000", "143915.484000", "143915.484000", "143915.484000", "143915.484000", "143915.484000", "143915.484000", "143915.484000", "143915.484000", "143915.500000", "143935.437000", "143935.437000", "143935.437000", "143935.437000", "143935.437000", "143935.453000", "143935.453000", "143935.453000", "143935.453000", "143935.453000", "143935.453000", "143935.453000", "143935.453000", "143935.468000", "143935.468000", "143935.468000", "143935.468000", "143935.468000", "143935.468000", "143935.468000", "143955.437000", "143955.437000", "143955.437000", "143955.437000", "143955.437000", "143955.453000", "143955.453000", "143955.453000", "143955.453000", "143955.453000", "143955.453000", "143955.468000", "143955.468000", "143955.468000", "143955.468000", "143955.468000", "143955.468000", "143955.468000", "143955.484000", "143955.484000", "144015.437000", "144015.437000", "144015.437000", "144015.437000", "144015.437000", "144015.453000", "144015.453000", "144015.453000", "144015.453000", "144015.453000", "144015.453000", "144015.453000", "144015.453000", "144015.468000", "144015.468000", "144015.468000", "144015.468000", "144015.468000", "144015.468000", "144015.468000", "144035.437000", "144035.437000", "144035.437000", "144035.437000", "144035.437000", "144035.453000", "144035.453000", "144035.453000", "144035.453000", "144035.453000", "144035.453000", "144035.453000", "144035.468000", "144035.468000", "144035.468000", "144035.468000", "144035.468000", "144035.468000", "144035.468000", "144035.468000", "144055.437000", "144055.437000", "144055.437000", "144055.437000", "144055.437000", "144055.453000", "144055.453000", "144055.453000", "144055.453000", "144055.453000", "144055.453000", "144055.468000", "144055.468000", "144055.468000", "144055.468000", "144055.468000", "144055.468000", "144055.468000", "144055.484000", "144055.484000", "144114.078000", "144114.078000", "144114.078000", "144114.078000", "144114.078000", "144114.078000", "144114.093000", "144114.093000", "144114.093000", "144114.093000", "144114.093000", "144114.093000", "144114.109000", "144114.109000"],
      "InstanceNumber": [1, 2, 3, 4, 5, 6, 7, 8, 9, 10, 11, 12, 13, 14, 15, 16, 17, 18, 19, 20, 21, 22, 23, 24, 25, 26, 27, 28, 29, 30, 31, 32, 33, 34, 35, 36, 37, 38, 39, 40, 41, 42, 43, 44, 45, 46, 47, 48, 49, 50, 51, 52, 53, 54, 55, 56, 57, 58, 59, 60, 61, 62, 63, 64, 65, 66, 67, 68, 69, 70, 71, 72, 73, 74, 75, 76, 77, 78, 79, 80, 81, 82, 83, 84, 85, 86, 87, 88, 89, 90, 91, 92, 93, 94, 95, 96, 97, 98, 99, 100, 101, 102, 103, 104, 105, 106, 107, 108, 109, 110, 111, 112, 113, 114, 115, 116, 117, 118, 119, 120, 121, 122, 123, 124, 125, 126, 127, 128, 129, 130, 131, 132, 133, 134, 135, 136, 137, 138, 139, 140, 141, 142, 143, 144, 145, 146, 147, 148, 149, 150, 151, 152, 153, 154, 155, 156, 157, 158, 159, 160, 161, 162, 163, 164, 165, 166, 167, 168, 169, 170, 171, 172, 173, 174, 175, 176, 177, 178, 179, 180, 181, 182, 183, 184, 185, 186, 187, 188, 189, 190, 191, 192, 193, 194, 195, 196, 197, 198, 199, 200, 201, 202, 203, 204, 205, 206, 207, 208, 209, 210, 211, 212, 213, 214, 215, 216, 217, 218, 219, 220, 221, 222, 223, 224, 225, 226, 227, 228, 229, 230, 231, 232, 233, 234, 235, 236, 237, 238, 239, 240, 241, 242, 243, 244, 245, 246, 247, 248, 249, 250, 251, 252, 253, 254, 255, 256, 257, 258, 259, 260, 261, 262, 263, 264, 265, 266, 267, 268, 269, 270, 271, 272, 273, 274, 275, 276, 277, 278, 279, 280, 281, 282, 283, 284, 285, 286, 287, 288, 289, 290, 291, 292, 293, 294, 295, 296, 297, 298, 299, 300, 301, 302, 303, 304, 305, 306, 307, 308, 309, 310, 311, 312, 313, 314, 315, 316, 317, 318, 319, 320, 321, 322, 323, 324, 325, 326, 327, 328, 329, 330],
      "LargestImagePixelValue": [2206, 2201, 2220, 2214, 2172, 2203, 2204, 2171, 2185, 2150, 2161, 2134, 2182, 2160, 2139, 2145, 2141, 2141, 2158, 2162, 2155, 2150, 2155, 2157, 2143, 2173, 2133, 2161, 2156, 2171, 2147, 2158, 2157, 2162, 2122, 2134, 2205, 2136, 2135, 2129, 2137, 2139, 2140, 2117, 2157, 2145, 2131, 2104, 2141, 2113, 2131, 2181, 2137, 2167, 2130, 2121, 2157, 2138, 2179, 2164, 2140, 2126, 2178, 2151, 2160, 2128, 2131, 2182, 2144, 2139, 2126, 2081, 2113, 2110, 2123, 2164, 2149, 2135, 2133, 2138, 2130, 2135, 2116, 2147, 2103, 2128, 2134, 2132, 2111, 2111, 2126, 2114, 2106, 2079, 2105, 2074, 2095, 2128, 2116, 2120, 2098, 2069, 2085, 2102, 2145, 2105, 2126, 2084, 2090, 2097, 2107, 2105, 2153, 2126, 2133, 2122, 2137, 2093, 2098, 2101, 2109, 2123, 2108, 2115, 2097, 2098, 2098, 2094, 2091, 2146, 2138, 2122, 2104, 2130, 2099, 2088, 2108, 2092, 2072, 2083, 2116, 2084, 2115, 2106, 2101, 2123, 2151, 2098, 2131, 2112, 2088, 2087, 2101, 2110, 2099, 2117, 2123, 2127, 2105, 2115, 2129, 2102, 2108, 2124, 2111, 2111, 2131, 2116, 2157, 2136, 2136, 2121, 2098, 2115, 2104, 2117, 2137, 2131, 2137, 2154, 2128, 2133, 2138, 2165, 2131, 2130, 2124, 2122, 2103, 2136, 2138, 2120, 2128, 2134, 2121, 2144, 2121, 2137, 2122, 2134, 2146, 2118, 2151, 2154, 2100, 2133, 2155, 2135, 2138, 2133, 2130, 2127, 2110, 2149, 2128, 2110, 2125, 2119, 2116, 2114, 2140, 2129, 2102, 2135, 2108, 2122, 2099, 2097, 2087, 2082, 2116, 2121, 2086, 2116, 2102, 2089, 2116, 2111, 2096, 2135, 2134, 2109, 2131, 2111, 2123, 2144, 2109, 2131, 2125, 2155, 2126, 2136, 2138, 2159, 2119, 2130, 2148, 2099, 2105, 2148, 2136, 2107, 2122, 2102, 2111, 2130, 2106, 2108, 2109, 2108, 2132, 2137, 2119, 2108, 2125, 2148, 2102, 2117, 2102, 2132, 2108, 2099, 2139, 2126, 2094, 2130, 2126, 2096, 2092, 2117, 2120, 2118, 2106, 2094, 2098, 2115, 2090, 2137, 2103, 2070, 2144, 2129, 2101, 2117, 2122, 2126, 2108, 2139, 2127, 2146, 2140, 2124, 2148, 2137, 2159, 2112, 2155, 2111, 2156, 2147, 2125, 2116, 2136, 2115, 2128, 2133, 2104, 2138, 2125, 2132],
      "WindowCenter": [458.0, 457.0, 458.0, 458.0, 458.0, 458.0, 458.0, 458.0, 457.0, 456.0, 456.0, 456.0, 455.0, 456.0, 456.0, 456.0, 457.0, 458.0, 458.0, 458.0, 458.0, 457.0, 457.0, 457.0, 456.0, 455.0, 454.0, 455.0, 455.0, 455.0, 457.0, 456.0, 457.0, 457.0, 456.0, 456.0, 456.0, 455.0, 454.0, 455.0, 456.0, 458.0, 460.0, 460.0, 460.0, 459.0, 458.0, 456.0, 455.0, 455.0, 454.0, 455.0, 455.0, 455.0, 454.0, 454.0, 454.0, 453.0, 454.0, 455.0, 455.0, 455.0, 457.0, 456.0, 455.0, 455.0, 455.0, 454.0, 453.0, 453.0, 453.0, 453.0, 453.0, 455.0, 455.0, 457.0, 457.0, 456.0, 456.0, 456.0, 455.0, 454.0, 454.0, 453.0, 453.0, 454.0, 454.0, 454.0, 455.0, 454.0, 454.0, 454.0, 454.0, 453.0, 453.0, 453.0, 455.0, 457.0, 457.0, 456.0, 456.0, 454.0, 454.0, 455.0, 456.0, 455.0, 456.0, 455.0, 454.0, 454.0, 454.0, 453.0, 455.0, 455.0, 456.0, 456.0, 458.0, 457.0, 456.0, 456.0, 456.0, 455.0, 455.0, 456.0, 455.0, 455.0, 454.0, 453.0, 453.0, 454.0, 454.0, 454.0, 454.0, 456.0, 455.0, 455.0, 456.0, 455.0, 454.0, 454.0, 453.0, 452.0, 454.0, 454.0, 454.0, 456.0, 457.0, 456.0, 456.0, 456.0, 455.0, 454.0, 454.0, 454.0, 454.0, 455.0, 456.0, 456.0, 457.0, 457.0, 457.0, 456.0, 456.0, 457.0, 457.0, 456.0, 456.0, 454.0, 453.0, 454.0, 453.0, 454.0, 455.0, 456.0, 457.0, 457.0, 457.0, 456.0, 455.0, 455.0, 455.0, 455.0, 455.0, 457.0, 456.0, 456.0, 456.0, 455.0, 454.0, 455.0, 455.0, 455.0, 456.0, 457.0, 456.0, 456.0, 455.0, 454.0, 453.0, 453.0, 453.0, 453.0, 454.0, 455.0, 454.0, 455.0, 456.0, 456.0, 456.0, 456.0, 455.0, 454.0, 454.0, 455.0, 454.0, 454.0, 455.0, 456.0, 456.0, 455.0, 456.0, 456.0, 455.0, 457.0, 456.0, 456.0, 456.0, 456.0, 456.0, 456.0, 457.0, 456.0, 455.0, 455.0, 454.0, 454.0, 455.0, 454.0, 453.0, 454.0, 454.0, 454.0, 456.0, 456.0, 456.0, 457.0, 456.0, 456.0, 456.0, 457.0, 456.0, 457.0, 457.0, 456.0, 455.0, 455.0, 455.0, 453.0, 454.0, 455.0, 455.0, 455.0, 456.0, 455.0, 455.0, 455.0, 455.0, 454.0, 454.0, 454.0, 454.0, 454.0, 454.0, 455.0, 456.0, 458.0, 459.0, 458.0, 457.0, 457.0, 456.0, 455.0, 455.0, 455.0, 455.0, 456.0, 456.0, 455.0, 454.0, 454.0, 454.0, 454.0, 454.0, 454.0, 455.0, 455.0, 456.0, 458.0, 456.0, 455.0, 457.0, 456.0, 457.0, 457.0, 458.0, 458.0, 456.0, 457.0, 457.0, 456.0, 456.0, 457.0, 457.0, 456.0, 455.0, 454.0, 454.0, 454.0, 456.0, 458.0, 457.0, 457.0, 457.0, 457.0, 457.0, 458.0, 457.0, 457.0, 457.0, 458.0],
