{
  "AcquisitionMatrixPE": 104,
  "AcquisitionNumber": 1,
  "AcquisitionTime": "13:59:49.230000",
  "BandwidthPerPixelPhaseEncode": 43.054,
  "BaseResolution": 104,
  "CoilString": "C:E1_2",
  "ConversionSoftware": "dcm2niix",
  "ConversionSoftwareVersion": "v1.0.20191031",
  "DerivedVendorReportedEchoSpacing": 0.000669999,
  "DeviceSerialNumber": "18932",
  "DwellTime": 2.8e-06,
  "EchoTime": 0.02,
  "EffectiveEchoSpacing": 0.000223333,
  "FlipAngle": 30,
  "ImageComments": "Unaliased_MB2_PE2",
  "ImageOrientationPatientDICOM": [1, 0, 0, 0, 0.999048, -0.0436194],
  "ImageType": [
    "ORIGINAL",
    "PRIMARY",
    "M",
    "MB",
    "ND",
    "MOSAIC"
],
  "ImagingFrequency": 297.229,
  "InPlanePhaseEncodingDirectionDICOM": "COL",
  "InstitutionAddress": "Richmond_Street_North_1151_London_409EF2_Ontario_CA_N6A_5B7",
  "InstitutionName": "Robarts_Reserch_Institute",
  "InstitutionalDepartmentName": "Department",
  "MRAcquisitionType": "2D",
  "MagneticFieldStrength": 6.98,
  "Manufacturer": "Siemens",
  "ManufacturersModelName": "Investigational_Device_7T",
  "Modality": "MR",
  "MultibandAccelerationFactor": 2,
  "ParallelReductionFactorInPlane": 3,
  "PartialFourier": 0.875,
  "PatientPosition": "HFS",
  "PercentPhaseFOV": 100,
  "PhaseEncodingDirection": "j-",
  "PhaseEncodingSteps": 91,
  "PhaseResolution": 1,
  "PixelBandwidth": 1717,
  "ProcedureStepDescription": "Diedrichsen_SeqRep4",
  "ProtocolName": "mbep2d_bold_mb2_p3_AP_2iso",
  "PulseSequenceDetails": "%CustomerSeq%_cmrr_mbep2d_bold",
  "ReceiveCoilName": "CFMM_8Tx32Rx",
  "ReconMatrixPE": 104,
  "RefLinesPE": 36,
  "RepetitionTime": 1,
  "ScanOptions": "PFP_FS",
  "ScanningSequence": "EP",
  "SequenceName": "epfid2d1_104",
  "SequenceVariant": "SK_SS",
  "SeriesDescription": "mbep2d_bold_mb2_p3_AP_2iso",
  "SeriesNumber": 16,
  "ShimSetting": [30, 2004, 104, 1434, 84, 146, 137, -93],
  "SliceThickness": 2,
  "SliceTiming": [0, 0.23, 0.4575, 0.685, 0.9125, 0.1375, 0.365, 0.595, 0.8225, 0.0475, 0.275, 0.5025, 0.73, 0.96, 0.1825, 0.4125, 0.64, 0.8675, 0.0925, 0.32, 0.5475, 0.7775, 0, 0.23, 0.4575, 0.685, 0.9125, 0.1375, 0.365, 0.595, 0.8225, 0.0475, 0.275, 0.5025, 0.73, 0.96, 0.1825, 0.4125, 0.64, 0.8675, 0.0925, 0.32, 0.5475, 0.7775],
  "SoftwareVersions": "syngo_MR_B17",
  "SpacingBetweenSlices": 2,
  "StationName": "MASTER",
  "TaskName": "dsp",
  "TotalReadoutTime": 0.0230033,
  "TxRefAmp": 120,
  "dcmmeta_affine": [
    [-2.0, 0.0, 0.0, 108.35835266113281],
    [0.0, 1.9980964660644531, -0.08723877370357513, -102.20863342285156],
    [0.0, 0.08723877370357513, 1.9980963468551636, -18.40200424194336],
    [0.0, 0.0, 0.0, 1.0]
],
  "dcmmeta_reorient_transform": [
    [0.0, -1.0, 0.0, 103.0],
    [1.0, 0.0, 0.0, 0.0],
    [0.0, 0.0, 1.0, 0.0],
    [0.0, 0.0, 0.0, 1.0]
],
  "dcmmeta_shape": [104, 104, 44, 330],
  "dcmmeta_slice_dim": 2,
  "dcmmeta_version": 0.6,
  "global": {
    "const": {
      "AcquisitionMatrix": [104, 0, 0, 104],
      "AngioFlag": "N",
      "BitsAllocated": 16,
      "BitsStored": 12,
      "Columns": 728,
      "EchoNumbers": 1,
      "EchoTime": 20.0,
      "EchoTrainLength": 1,
      "FlipAngle": 30.0,
      "HighBit": 11,
      "ImageOrientationPatient": [1.0, 0.0, 0.0, 0.0, 0.99904822159351, -0.0436193870985],
      "ImagePositionPatient": [-732.35835361481, -727.0013941103, 17.802086354127],
      "ImageType": [
        "ORIGINAL",
        "PRIMARY",
        "M",
        "MB",
        "ND",
        "MOSAIC"
],
      "ImagedNucleus": "1H",
      "ImagingFrequency": 297.228778,
      "InPlanePhaseEncodingDirection": "COL",
      "MRAcquisitionType": "2D",
      "MagneticFieldStrength": 6.98,
      "Manufacturer": "SIEMENS",
      "ManufacturerModelName": "Investigational_Device_7T",
      "Modality": "MR",
      "NumberOfAverages": 1.0,
      "NumberOfPhaseEncodingSteps": 91,
      "PercentPhaseFieldOfView": 100.0,
      "PercentSampling": 100.0,
      "PerformedProcedureStepStartTime": "132553.421000",
      "PhotometricInterpretation": "MONOCHROME2",
      "PixelBandwidth": 1717.0,
      "PixelRepresentation": 0,
      "PixelSpacing": [2.0, 2.0],
      "ProtocolName": "mbep2d_bold_mb2_p3_AP 2iso",
      "RepetitionTime": 1000.0,
      "Rows": 728,
      "SAR": 0.0,
      "SamplesPerPixel": 1,
      "ScanOptions": [
        "PFP",
        "FS"
],
      "ScanningSequence": "EP",
      "SequenceName": "epfid2d1_104",
      "SequenceVariant": [
        "SK",
        "SS"
],
      "SeriesDescription": "mbep2d_bold_mb2_p3_AP 2iso",
      "SeriesNumber": 16,
      "SeriesTime": "140011.531000",
      "SliceLocation": -13.926212518134,
      "SliceThickness": 2.0,
      "SmallestImagePixelValue": 0,
      "SoftwareVersions": "syngo MR B17",
      "SpacingBetweenSlices": 1.9999999344314,
      "SpecificCharacterSet": "ISO_IR 100",
      "StudyID": "1",
      "StudyTime": "132553.359000",
      "TransmitCoilName": "CFMM_8Tx32Rx",
      "VariableFlipAngleFlag": "N",
      "WindowCenterWidthExplanation": "Algo1",
      "dBdt": 0.0},
    "slices": {}
  },
  "time": {
    "samples": {
      "AcquisitionNumber": [1, 2, 3, 4, 5, 6, 7, 8, 9, 10, 11, 12, 13, 14, 15, 16, 17, 18, 19, 20, 21, 22, 23, 24, 25, 26, 27, 28, 29, 30, 31, 32, 33, 34, 35, 36, 37, 38, 39, 40, 41, 42, 43, 44, 45, 46, 47, 48, 49, 50, 51, 52, 53, 54, 55, 56, 57, 58, 59, 60, 61, 62, 63, 64, 65, 66, 67, 68, 69, 70, 71, 72, 73, 74, 75, 76, 77, 78, 79, 80, 81, 82, 83, 84, 85, 86, 87, 88, 89, 90, 91, 92, 93, 94, 95, 96, 97, 98, 99, 100, 101, 102, 103, 104, 105, 106, 107, 108, 109, 110, 111, 112, 113, 114, 115, 116, 117, 118, 119, 120, 121, 122, 123, 124, 125, 126, 127, 128, 129, 130, 131, 132, 133, 134, 135, 136, 137, 138, 139, 140, 141, 142, 143, 144, 145, 146, 147, 148, 149, 150, 151, 152, 153, 154, 155, 156, 157, 158, 159, 160, 161, 162, 163, 164, 165, 166, 167, 168, 169, 170, 171, 172, 173, 174, 175, 176, 177, 178, 179, 180, 181, 182, 183, 184, 185, 186, 187, 188, 189, 190, 191, 192, 193, 194, 195, 196, 197, 198, 199, 200, 201, 202, 203, 204, 205, 206, 207, 208, 209, 210, 211, 212, 213, 214, 215, 216, 217, 218, 219, 220, 221, 222, 223, 224, 225, 226, 227, 228, 229, 230, 231, 232, 233, 234, 235, 236, 237, 238, 239, 240, 241, 242, 243, 244, 245, 246, 247, 248, 249, 250, 251, 252, 253, 254, 255, 256, 257, 258, 259, 260, 261, 262, 263, 264, 265, 266, 267, 268, 269, 270, 271, 272, 273, 274, 275, 276, 277, 278, 279, 280, 281, 282, 283, 284, 285, 286, 287, 288, 289, 290, 291, 292, 293, 294, 295, 296, 297, 298, 299, 300, 301, 302, 303, 304, 305, 306, 307, 308, 309, 310, 311, 312, 313, 314, 315, 316, 317, 318, 319, 320, 321, 322, 323, 324, 325, 326, 327, 328, 329, 330],
      "AcquisitionTime": ["135949.230000", "135950.235000", "135951.240000", "135952.242500", "135953.247500", "135954.250000", "135955.255000", "135956.260000", "135957.262500", "135958.267500", "135959.270000", "140000.275000", "140001.280000", "140002.282500", "140003.287500", "140004.292500", "140005.295000", "140006.300000", "140007.302500", "140008.307500", "140009.312500", "140010.315000", "140011.320000", "140012.322500", "140013.327500", "140014.332500", "140015.335000", "140016.340000", "140017.342500", "140018.347500", "140019.352500", "140020.355000", "140021.360000", "140022.362500", "140023.367500", "140024.372500", "140025.375000", "140026.380000", "140027.382500", "140028.387500", "140029.392500", "140030.395000", "140031.400000", "140032.402500", "140033.407500", "140034.412500", "140035.415000", "140036.420000", "140037.425000", "140038.427500", "140039.432500", "140040.435000", "140041.440000", "140042.445000", "140043.447500", "140044.452500", "140045.455000", "140046.460000", "140047.465000", "140048.467500", "140049.472500", "140050.475000", "140051.480000", "140052.485000", "140053.487500", "140054.492500", "140055.495000", "140056.500000", "140057.505000", "140058.507500", "140059.512500", "140100.515000", "140101.520000", "140102.525000", "140103.527500", "140104.532500", "140105.537500", "140106.540000", "140107.545000", "140108.547500", "140109.552500", "140110.557500", "140111.560000", "140112.565000", "140113.567500", "140114.572500", "140115.577500", "140116.580000", "140117.585000", "140118.587500", "140119.592500", "140120.597500", "140121.600000", "140122.605000", "140123.607500", "140124.612500", "140125.617500", "140126.620000", "140127.625000", "140128.627500", "140129.632500", "140130.637500", "140131.640000", "140132.645000", "140133.647500", "140134.652500", "140135.657500", "140136.660000", "140137.665000", "140138.670000", "140139.672500", "140140.677500", "140141.680000", "140142.685000", "140143.690000", "140144.692500", "140145.697500", "140146.700000", "140147.705000", "140148.710000", "140149.712500", "140150.717500", "140151.720000", "140152.725000", "140153.730000", "140154.732500", "140155.737500", "140156.740000", "140157.745000", "140158.750000", "140159.752500", "140200.757500", "140201.760000", "140202.765000", "140203.770000", "140204.772500", "140205.777500", "140206.780000", "140207.785000", "140208.790000", "140209.792500", "140210.797500", "140211.802500", "140212.805000", "140213.810000", "140214.812500", "140215.817500", "140216.822500", "140217.825000", "140218.830000", "140219.832500", "140220.837500", "140221.842500", "140222.845000", "140223.850000", "140224.852500", "140225.857500", "140226.862500", "140227.865000", "140228.870000", "140229.872500", "140230.877500", "140231.882500", "140232.885000", "140233.890000", "140234.892500", "140235.897500", "140236.902500", "140237.905000", "140238.910000", "140239.915000", "140240.917500", "140241.922500", "140242.925000", "140243.930000", "140244.935000", "140245.937500", "140246.942500", "140247.945000", "140248.950000", "140249.955000", "140250.957500", "140251.962500", "140252.965000", "140253.970000", "140254.975000", "140255.977500", "140256.982500", "140257.985000", "140258.990000", "140259.995000", "140300.997500", "140302.002500", "140303.005000", "140304.010000", "140305.015000", "140306.017500", "140307.022500", "140308.025000", "140309.030000", "140310.035000", "140311.037500", "140312.042500", "140313.047500", "140314.050000", "140315.055000", "140316.057500", "140317.062500", "140318.067500", "140319.070000", "140320.075000", "140321.077500", "140322.082500", "140323.087500", "140324.090000", "140325.095000", "140326.097500", "140327.102500", "140328.107500", "140329.110000", "140330.115000", "140331.117500", "140332.122500", "140333.127500", "140334.130000", "140335.135000", "140336.137500", "140337.142500", "140338.147500", "140339.150000", "140340.155000", "140341.157500", "140342.162500", "140343.167500", "140344.170000", "140345.175000", "140346.180000", "140347.182500", "140348.187500", "140349.190000", "140350.195000", "140351.200000", "140352.202500", "140353.207500", "140354.210000", "140355.215000", "140356.220000", "140357.222500", "140358.227500", "140359.230000", "140400.235000", "140401.240000", "140402.242500", "140403.247500", "140404.250000", "140405.255000", "140406.260000", "140407.262500", "140408.267500", "140409.270000", "140410.275000", "140411.280000", "140412.282500", "140413.287500", "140414.292500", "140415.295000", "140416.300000", "140417.302500", "140418.307500", "140419.312500", "140420.315000", "140421.320000", "140422.322500", "140423.327500", "140424.332500", "140425.335000", "140426.340000", "140427.342500", "140428.347500", "140429.352500", "140430.355000", "140431.360000", "140432.362500", "140433.367500", "140434.372500", "140435.375000", "140436.380000", "140437.382500", "140438.387500", "140439.392500", "140440.395000", "140441.400000", "140442.402500", "140443.407500", "140444.412500", "140445.415000", "140446.420000", "140447.425000", "140448.427500", "140449.432500", "140450.435000", "140451.440000", "140452.445000", "140453.447500", "140454.452500", "140455.455000", "140456.460000", "140457.465000", "140458.467500", "140459.472500", "140500.475000", "140501.480000", "140502.485000", "140503.487500", "140504.492500", "140505.495000", "140506.500000", "140507.505000", "140508.507500", "140509.512500", "140510.515000", "140511.520000", "140512.525000", "140513.527500", "140514.532500", "140515.537500", "140516.540000", "140517.545000", "140518.547500", "140519.552500"],
      "ContentTime": ["140011.531000", "140011.546000", "140011.546000", "140011.546000", "140011.546000", "140011.546000", "140011.546000", "140011.562000", "140011.562000", "140011.562000", "140011.562000", "140011.578000", "140011.578000", "140011.578000", "140011.578000", "140011.593000", "140011.593000", "140011.593000", "140011.593000", "140011.593000", "140011.593000", "140031.500000", "140031.500000", "140031.500000", "140031.500000", "140031.500000", "140031.515000", "140031.515000", "140031.515000", "140031.515000", "140031.515000", "140031.515000", "140031.515000", "140031.515000", "140031.531000", "140031.531000", "140031.531000", "140031.531000", "140031.531000", "140031.531000", "140031.546000", "140051.500000", "140051.500000", "140051.500000", "140051.500000", "140051.500000", "140051.515000", "140051.515000", "140051.515000", "140051.515000", "140051.515000", "140051.515000", "140051.531000", "140051.531000", "140051.531000", "140051.531000", "140051.531000", "140051.546000", "140051.546000", "140051.546000", "140051.546000", "140111.500000", "140111.500000", "140111.500000", "140111.500000", "140111.500000", "140111.515000", "140111.515000", "140111.515000", "140111.515000", "140111.531000", "140111.531000", "140111.531000", "140111.531000", "140111.531000", "140111.531000", "140111.531000", "140111.531000", "140111.546000", "140111.546000", "140111.546000", "140131.500000", "140131.500000", "140131.500000", "140131.500000", "140131.500000", "140131.515000", "140131.515000", "140131.515000", "140131.515000", "140131.515000", "140131.515000", "140131.515000", "140131.531000", "140131.531000", "140131.531000", "140131.531000", "140131.531000", "140131.546000", "140131.546000", "140131.546000", "140151.500000", "140151.500000", "140151.500000", "140151.500000", "140151.500000", "140151.515000", "140151.515000", "140151.515000", "140151.515000", "140151.515000", "140151.531000", "140151.531000", "140151.531000", "140151.531000", "140151.531000", "140151.531000", "140151.546000", "140151.546000", "140151.546000", "140151.546000", "140211.500000", "140211.500000", "140211.500000", "140211.500000", "140211.500000", "140211.515000", "140211.515000", "140211.515000", "140211.515000", "140211.515000", "140211.515000", "140211.515000", "140211.531000", "140211.531000", "140211.531000", "140211.531000", "140211.531000", "140211.531000", "140211.531000", "140211.546000", "140231.500000", "140231.500000", "140231.500000", "140231.500000", "140231.500000", "140231.515000", "140231.515000", "140231.515000", "140231.515000", "140231.515000", "140231.515000", "140231.515000", "140231.531000", "140231.531000", "140231.531000", "140231.531000", "140231.531000", "140231.546000", "140231.546000", "140231.546000", "140251.500000", "140251.500000", "140251.515000", "140251.515000", "140251.515000", "140251.515000", "140251.515000", "140251.515000", "140251.515000", "140251.531000", "140251.531000", "140251.531000", "140251.531000", "140251.531000", "140251.531000", "140251.546000", "140251.546000", "140251.546000", "140251.546000", "140251.546000", "140311.500000", "140311.500000", "140311.500000", "140311.500000", "140311.500000", "140311.515000", "140311.515000", "140311.515000", "140311.515000", "140311.515000", "140311.515000", "140311.515000", "140311.531000", "140311.531000", "140311.531000", "140311.531000", "140311.531000", "140311.531000", "140311.531000", "140311.546000", "140331.500000", "140331.500000", "140331.500000", "140331.500000", "140331.500000", "140331.515000", "140331.515000", "140331.515000", "140331.515000", "140331.515000", "140331.515000", "140331.515000", "140331.515000", "140331.531000", "140331.531000", "140331.531000", "140331.531000", "140331.531000", "140331.531000", "140331.531000", "140351.500000", "140351.500000", "140351.500000", "140351.500000", "140351.500000", "140351.515000", "140351.515000", "140351.515000", "140351.515000", "140351.515000", "140351.515000", "140351.515000", "140351.531000", "140351.531000", "140351.531000", "140351.531000", "140351.531000", "140351.531000", "140351.531000", "140351.546000", "140411.500000", "140411.500000", "140411.500000", "140411.515000", "140411.515000", "140411.515000", "140411.515000", "140411.515000", "140411.515000", "140411.515000", "140411.515000", "140411.531000", "140411.531000", "140411.531000", "140411.531000", "140411.531000", "140411.531000", "140411.531000", "140411.546000", "140411.546000", "140431.500000", "140431.500000", "140431.500000", "140431.500000", "140431.500000", "140431.515000", "140431.515000", "140431.515000", "140431.515000", "140431.515000", "140431.515000", "140431.515000", "140431.531000", "140431.531000", "140431.531000", "140431.531000", "140431.531000", "140431.531000", "140431.531000", "140431.546000", "140451.500000", "140451.500000", "140451.500000", "140451.500000", "140451.500000", "140451.515000", "140451.515000", "140451.515000", "140451.515000", "140451.531000", "140451.531000", "140451.531000", "140451.531000", "140451.531000", "140451.531000", "140451.531000", "140451.546000", "140451.546000", "140451.546000", "140451.546000", "140511.500000", "140511.500000", "140511.500000", "140511.500000", "140511.515000", "140511.515000", "140511.531000", "140511.531000", "140511.531000", "140511.546000", "140511.546000", "140511.546000", "140511.546000", "140511.546000", "140511.546000", "140511.562000", "140511.562000", "140511.562000", "140511.562000", "140511.562000", "140525.312000", "140525.312000", "140525.312000", "140525.312000", "140525.312000", "140525.312000", "140525.328000", "140525.328000", "140525.328000"],
      "InstanceCreationTime": ["140011.531000", "140011.546000", "140011.546000", "140011.546000", "140011.546000", "140011.546000", "140011.546000", "140011.562000", "140011.562000", "140011.562000", "140011.562000", "140011.578000", "140011.578000", "140011.578000", "140011.578000", "140011.593000", "140011.593000", "140011.593000", "140011.593000", "140011.593000", "140011.593000", "140031.500000", "140031.500000", "140031.500000", "140031.500000", "140031.500000", "140031.515000", "140031.515000", "140031.515000", "140031.515000", "140031.515000", "140031.515000", "140031.515000", "140031.515000", "140031.531000", "140031.531000", "140031.531000", "140031.531000", "140031.531000", "140031.531000", "140031.546000", "140051.500000", "140051.500000", "140051.500000", "140051.500000", "140051.500000", "140051.515000", "140051.515000", "140051.515000", "140051.515000", "140051.515000", "140051.515000", "140051.531000", "140051.531000", "140051.531000", "140051.531000", "140051.531000", "140051.546000", "140051.546000", "140051.546000", "140051.546000", "140111.500000", "140111.500000", "140111.500000", "140111.500000", "140111.500000", "140111.515000", "140111.515000", "140111.515000", "140111.515000", "140111.531000", "140111.531000", "140111.531000", "140111.531000", "140111.531000", "140111.531000", "140111.531000", "140111.531000", "140111.546000", "140111.546000", "140111.546000", "140131.500000", "140131.500000", "140131.500000", "140131.500000", "140131.500000", "140131.515000", "140131.515000", "140131.515000", "140131.515000", "140131.515000", "140131.515000", "140131.515000", "140131.531000", "140131.531000", "140131.531000", "140131.531000", "140131.531000", "140131.546000", "140131.546000", "140131.546000", "140151.500000", "140151.500000", "140151.500000", "140151.500000", "140151.500000", "140151.515000", "140151.515000", "140151.515000", "140151.515000", "140151.515000", "140151.531000", "140151.531000", "140151.531000", "140151.531000", "140151.531000", "140151.531000", "140151.546000", "140151.546000", "140151.546000", "140151.546000", "140211.500000", "140211.500000", "140211.500000", "140211.500000", "140211.500000", "140211.515000", "140211.515000", "140211.515000", "140211.515000", "140211.515000", "140211.515000", "140211.515000", "140211.531000", "140211.531000", "140211.531000", "140211.531000", "140211.531000", "140211.531000", "140211.531000", "140211.546000", "140231.500000", "140231.500000", "140231.500000", "140231.500000", "140231.500000", "140231.515000", "140231.515000", "140231.515000", "140231.515000", "140231.515000", "140231.515000", "140231.515000", "140231.531000", "140231.531000", "140231.531000", "140231.531000", "140231.531000", "140231.546000", "140231.546000", "140231.546000", "140251.500000", "140251.500000", "140251.515000", "140251.515000", "140251.515000", "140251.515000", "140251.515000", "140251.515000", "140251.515000", "140251.531000", "140251.531000", "140251.531000", "140251.531000", "140251.531000", "140251.531000", "140251.546000", "140251.546000", "140251.546000", "140251.546000", "140251.546000", "140311.500000", "140311.500000", "140311.500000", "140311.500000", "140311.500000", "140311.515000", "140311.515000", "140311.515000", "140311.515000", "140311.515000", "140311.515000", "140311.515000", "140311.531000", "140311.531000", "140311.531000", "140311.531000", "140311.531000", "140311.531000", "140311.531000", "140311.546000", "140331.500000", "140331.500000", "140331.500000", "140331.500000", "140331.500000", "140331.515000", "140331.515000", "140331.515000", "140331.515000", "140331.515000", "140331.515000", "140331.515000", "140331.515000", "140331.531000", "140331.531000", "140331.531000", "140331.531000", "140331.531000", "140331.531000", "140331.531000", "140351.500000", "140351.500000", "140351.500000", "140351.500000", "140351.500000", "140351.515000", "140351.515000", "140351.515000", "140351.515000", "140351.515000", "140351.515000", "140351.515000", "140351.531000", "140351.531000", "140351.531000", "140351.531000", "140351.531000", "140351.531000", "140351.531000", "140351.546000", "140411.500000", "140411.500000", "140411.500000", "140411.515000", "140411.515000", "140411.515000", "140411.515000", "140411.515000", "140411.515000", "140411.515000", "140411.515000", "140411.531000", "140411.531000", "140411.531000", "140411.531000", "140411.531000", "140411.531000", "140411.531000", "140411.546000", "140411.546000", "140431.500000", "140431.500000", "140431.500000", "140431.500000", "140431.500000", "140431.515000", "140431.515000", "140431.515000", "140431.515000", "140431.515000", "140431.515000", "140431.515000", "140431.531000", "140431.531000", "140431.531000", "140431.531000", "140431.531000", "140431.531000", "140431.531000", "140431.546000", "140451.500000", "140451.500000", "140451.500000", "140451.500000", "140451.500000", "140451.515000", "140451.515000", "140451.515000", "140451.515000", "140451.531000", "140451.531000", "140451.531000", "140451.531000", "140451.531000", "140451.531000", "140451.531000", "140451.546000", "140451.546000", "140451.546000", "140451.546000", "140511.500000", "140511.500000", "140511.500000", "140511.500000", "140511.515000", "140511.515000", "140511.531000", "140511.531000", "140511.531000", "140511.546000", "140511.546000", "140511.546000", "140511.546000", "140511.546000", "140511.546000", "140511.562000", "140511.562000", "140511.562000", "140511.562000", "140511.562000", "140525.312000", "140525.312000", "140525.312000", "140525.312000", "140525.312000", "140525.312000", "140525.328000", "140525.328000", "140525.328000"],
      "InstanceNumber": [1, 2, 3, 4, 5, 6, 7, 8, 9, 10, 11, 12, 13, 14, 15, 16, 17, 18, 19, 20, 21, 22, 23, 24, 25, 26, 27, 28, 29, 30, 31, 32, 33, 34, 35, 36, 37, 38, 39, 40, 41, 42, 43, 44, 45, 46, 47, 48, 49, 50, 51, 52, 53, 54, 55, 56, 57, 58, 59, 60, 61, 62, 63, 64, 65, 66, 67, 68, 69, 70, 71, 72, 73, 74, 75, 76, 77, 78, 79, 80, 81, 82, 83, 84, 85, 86, 87, 88, 89, 90, 91, 92, 93, 94, 95, 96, 97, 98, 99, 100, 101, 102, 103, 104, 105, 106, 107, 108, 109, 110, 111, 112, 113, 114, 115, 116, 117, 118, 119, 120, 121, 122, 123, 124, 125, 126, 127, 128, 129, 130, 131, 132, 133, 134, 135, 136, 137, 138, 139, 140, 141, 142, 143, 144, 145, 146, 147, 148, 149, 150, 151, 152, 153, 154, 155, 156, 157, 158, 159, 160, 161, 162, 163, 164, 165, 166, 167, 168, 169, 170, 171, 172, 173, 174, 175, 176, 177, 178, 179, 180, 181, 182, 183, 184, 185, 186, 187, 188, 189, 190, 191, 192, 193, 194, 195, 196, 197, 198, 199, 200, 201, 202, 203, 204, 205, 206, 207, 208, 209, 210, 211, 212, 213, 214, 215, 216, 217, 218, 219, 220, 221, 222, 223, 224, 225, 226, 227, 228, 229, 230, 231, 232, 233, 234, 235, 236, 237, 238, 239, 240, 241, 242, 243, 244, 245, 246, 247, 248, 249, 250, 251, 252, 253, 254, 255, 256, 257, 258, 259, 260, 261, 262, 263, 264, 265, 266, 267, 268, 269, 270, 271, 272, 273, 274, 275, 276, 277, 278, 279, 280, 281, 282, 283, 284, 285, 286, 287, 288, 289, 290, 291, 292, 293, 294, 295, 296, 297, 298, 299, 300, 301, 302, 303, 304, 305, 306, 307, 308, 309, 310, 311, 312, 313, 314, 315, 316, 317, 318, 319, 320, 321, 322, 323, 324, 325, 326, 327, 328, 329, 330],
      "LargestImagePixelValue": [2268, 2281, 2240, 2237, 2280, 2268, 2273, 2210, 2251, 2228, 2216, 2204, 2227, 2190, 2220, 2178, 2222, 2239, 2201, 2206, 2206, 2200, 2204, 2197, 2186, 2195, 2205, 2206, 2184, 2195, 2159, 2209, 2183, 2206, 2181, 2183, 2179, 2210, 2202, 2174, 2166, 2190, 2172, 2206, 2163, 2153, 2224, 2184, 2177, 2179, 2169, 2191, 2207, 2167, 2183, 2203, 2215, 2154, 2190, 2192, 2218, 2207, 2156, 2230, 2213, 2162, 2227, 2192, 2156, 2210, 2184, 2198, 2186, 2175, 2190, 2167, 2177, 2179, 2160, 2153, 2179, 2226, 2174, 2192, 2162, 2151, 2194, 2175, 2218, 2163, 2218, 2193, 2177, 2186, 2168, 2157, 2191, 2186, 2138, 2159, 2180, 2218, 2145, 2219, 2163, 2162, 2200, 2164, 2137, 2137, 2184, 2154, 2158, 2170, 2158, 2161, 2192, 2175, 2169, 2130, 2130, 2156, 2152, 2155, 2147, 2129, 2144, 2142, 2152, 2127, 2176, 2136, 2125, 2144, 2128, 2138, 2137, 2124, 2147, 2159, 2143, 2157, 2137, 2153, 2153, 2142, 2148, 2147, 2107, 2133, 2154, 2141, 2156, 2153, 2125, 2158, 2127, 2170, 2131, 2136, 2160, 2159, 2121, 2121, 2193, 2134, 2150, 2154, 2130, 2136, 2152, 2153, 2144, 2127, 2138, 2185, 2164, 2152, 2154, 2151, 2165, 2174, 2183, 2157, 2148, 2185, 2160, 2153, 2155, 2185, 2180, 2186, 2175, 2165, 2222, 2206, 2184, 2153, 2194, 2158, 2151, 2168, 2178, 2178, 2245, 2260, 2241, 2217, 2248, 2208, 2217, 2258, 2216, 2220, 2188, 2183, 2178, 2231, 2215, 2209, 2226, 2232, 2244, 2227, 2240, 2186, 2230, 2200, 2183, 2215, 2218, 2236, 2234, 2211, 2175, 2166, 2258, 2239, 2199, 2218, 2195, 2196, 2226, 2176, 2209, 2224, 2215, 2227, 2205, 2244, 2172, 2235, 2177, 2201, 2220, 2225, 2204, 2224, 2209, 2193, 2237, 2220, 2215, 2222, 2263, 2226, 2212, 2176, 2184, 2157, 2207, 2248, 2206, 2189, 2205, 2223, 2201, 2222, 2169, 2214, 2186, 2217, 2214, 2206, 2195, 2195, 2201, 2174, 2211, 2189, 2183, 2217, 2217, 2198, 2271, 2275, 2219, 2225, 2222, 2239, 2224, 2227, 2268, 2220, 2224, 2233, 2245, 2242, 2181, 2250, 2212, 2242, 2247, 2186, 2229, 2226, 2252, 2231, 2211, 2245, 2242, 2224, 2231, 2255, 2207, 2199, 2239, 2215, 2204, 2204],
      "WindowCenter": [467.0, 466.0, 466.0, 465.0, 466.0, 466.0, 465.0, 464.0, 464.0, 463.0, 463.0, 463.0, 464.0, 464.0, 465.0, 465.0, 466.0, 465.0, 465.0, 464.0, 464.0, 464.0, 464.0, 464.0, 464.0, 464.0, 464.0, 464.0, 464.0, 464.0, 464.0, 464.0, 465.0, 465.0, 464.0, 464.0, 464.0, 464.0, 464.0, 465.0, 464.0, 465.0, 464.0, 464.0, 463.0, 463.0, 463.0, 463.0, 463.0, 464.0, 463.0, 464.0, 465.0, 465.0, 465.0, 465.0, 465.0, 464.0, 465.0, 465.0, 464.0, 465.0, 464.0, 464.0, 463.0, 462.0, 462.0, 463.0, 462.0, 463.0, 463.0, 462.0, 462.0, 461.0, 461.0, 462.0, 463.0, 464.0, 463.0, 463.0, 463.0, 463.0, 463.0, 464.0, 465.0, 464.0, 465.0, 464.0, 464.0, 464.0, 464.0, 464.0, 464.0, 464.0, 463.0, 462.0, 462.0, 462.0, 462.0, 464.0, 466.0, 465.0, 464.0, 465.0, 463.0, 462.0, 462.0, 461.0, 461.0, 462.0, 463.0, 463.0, 462.0, 463.0, 463.0, 463.0, 463.0, 463.0, 462.0, 462.0, 463.0, 464.0, 463.0, 463.0, 463.0, 463.0, 463.0, 463.0, 463.0, 462.0, 463.0, 463.0, 463.0, 465.0, 465.0, 465.0, 465.0, 464.0, 464.0, 465.0, 465.0, 465.0, 465.0, 465.0, 465.0, 464.0, 464.0, 463.0, 462.0, 463.0, 464.0, 464.0, 464.0, 465.0, 463.0, 463.0, 462.0, 462.0, 461.0, 461.0, 462.0, 462.0, 461.0, 461.0, 464.0, 463.0, 463.0, 463.0, 463.0, 463.0, 464.0, 465.0, 465.0, 465.0, 465.0, 465.0, 464.0, 464.0, 465.0, 465.0, 465.0, 466.0, 465.0, 464.0, 463.0, 463.0, 463.0, 464.0, 465.0, 465.0, 466.0, 465.0, 463.0, 462.0, 462.0, 461.0, 461.0, 462.0, 463.0, 462.0, 463.0, 463.0, 464.0, 465.0, 466.0, 465.0, 465.0, 466.0, 466.0, 465.0, 466.0, 466.0, 465.0, 465.0, 465.0, 465.0, 465.0, 465.0, 464.0, 464.0, 464.0, 464.0, 465.0, 464.0, 464.0, 464.0, 465.0, 465.0, 465.0, 466.0, 465.0, 465.0, 464.0, 464.0, 464.0, 465.0, 466.0, 465.0, 464.0, 463.0, 462.0, 461.0, 462.0, 461.0, 462.0, 464.0, 465.0, 467.0, 467.0, 467.0, 466.0, 466.0, 465.0, 465.0, 466.0, 465.0, 465.0, 465.0, 464.0, 463.0, 464.0, 464.0, 464.0, 464.0, 464.0, 463.0, 464.0, 464.0, 464.0, 465.0, 465.0, 467.0, 467.0, 467.0, 466.0, 466.0, 465.0, 465.0, 464.0, 464.0, 464.0, 465.0, 465.0, 465.0, 465.0, 464.0, 464.0, 464.0, 464.0, 463.0, 463.0, 465.0, 465.0, 467.0, 469.0, 468.0, 466.0, 466.0, 465.0, 464.0, 463.0, 464.0, 465.0, 464.0, 464.0, 465.0, 465.0, 465.0, 464.0, 464.0, 464.0, 464.0, 465.0, 464.0, 465.0, 465.0, 465.0, 465.0, 465.0, 465.0, 465.0, 465.0, 465.0, 465.0, 464.0, 464.0, 464.0, 463.0, 464.0, 465.0],
