{
  "AcquisitionMatrixPE": 104,
  "AcquisitionNumber": 1,
  "AcquisitionTime": "14:48:25.265000",
  "BandwidthPerPixelPhaseEncode": 43.054,
  "BaseResolution": 104,
  "CoilString": "C:E1_2",
  "ConversionSoftware": "dcm2niix",
  "ConversionSoftwareVersion": "v1.0.20191031",
  "DerivedVendorReportedEchoSpacing": 0.000669999,
  "DeviceSerialNumber": "18932",
  "DwellTime": 2.8e-06,
  "EchoTime": 0.02,
  "EffectiveEchoSpacing": 0.000223333,
  "FlipAngle": 30,
  "ImageComments": "Unaliased_MB2_PE2",
  "ImageOrientationPatientDICOM": [1, 0, 0, 0, 0.999048, -0.0436194],
  "ImageType": [
    "ORIGINAL",
    "PRIMARY",
    "M",
    "MB",
    "ND",
    "MOSAIC"
],
  "ImagingFrequency": 297.229,
  "InPlanePhaseEncodingDirectionDICOM": "COL",
  "InstitutionAddress": "Richmond_Street_North_1151_London_409EF2_Ontario_CA_N6A_5B7",
  "InstitutionName": "Robarts_Reserch_Institute",
  "InstitutionalDepartmentName": "Department",
  "MRAcquisitionType": "2D",
  "MagneticFieldStrength": 6.98,
  "Manufacturer": "Siemens",
  "ManufacturersModelName": "Investigational_Device_7T",
  "Modality": "MR",
  "MultibandAccelerationFactor": 2,
  "ParallelReductionFactorInPlane": 3,
  "PartialFourier": 0.875,
  "PatientPosition": "HFS",
  "PercentPhaseFOV": 100,
  "PhaseEncodingDirection": "j-",
  "PhaseEncodingSteps": 91,
  "PhaseResolution": 1,
  "PixelBandwidth": 1717,
  "ProcedureStepDescription": "Diedrichsen_SeqRep4",
  "ProtocolName": "mbep2d_bold_mb2_p3_AP_2iso",
  "PulseSequenceDetails": "%CustomerSeq%_cmrr_mbep2d_bold",
  "ReceiveCoilName": "CFMM_8Tx32Rx",
  "ReconMatrixPE": 104,
  "RefLinesPE": 36,
  "RepetitionTime": 1,
  "ScanOptions": "PFP_FS",
  "ScanningSequence": "EP",
  "SequenceName": "epfid2d1_104",
  "SequenceVariant": "SK_SS",
  "SeriesDescription": "mbep2d_bold_mb2_p3_AP_2iso",
  "SeriesNumber": 33,
  "ShimSetting": [30, 2004, 104, 1434, 84, 146, 137, -93],
  "SliceThickness": 2,
  "SliceTiming": [0, 0.2275, 0.455, 0.6825, 0.9125, 0.135, 0.365, 0.5925, 0.82, 0.045, 0.2725, 0.5, 0.73, 0.9575, 0.1825, 0.41, 0.6375, 0.865, 0.09, 0.3175, 0.5475, 0.775, 0, 0.2275, 0.455, 0.6825, 0.9125, 0.135, 0.365, 0.5925, 0.82, 0.045, 0.2725, 0.5, 0.73, 0.9575, 0.1825, 0.41, 0.6375, 0.865, 0.09, 0.3175, 0.5475, 0.775],
  "SoftwareVersions": "syngo_MR_B17",
  "SpacingBetweenSlices": 2,
  "StationName": "MASTER",
  "TaskName": "dsp",
  "TotalReadoutTime": 0.0230033,
  "TxRefAmp": 120,
  "dcmmeta_affine": [
    [-2.0, 0.0, 0.0, 108.35835266113281],
    [0.0, 1.9980964660644531, -0.08723877370357513, -102.20863342285156],
    [0.0, 0.08723877370357513, 1.9980963468551636, -18.40200424194336],
    [0.0, 0.0, 0.0, 1.0]
],
  "dcmmeta_reorient_transform": [
    [0.0, -1.0, 0.0, 103.0],
    [1.0, 0.0, 0.0, 0.0],
    [0.0, 0.0, 1.0, 0.0],
    [0.0, 0.0, 0.0, 1.0]
],
  "dcmmeta_shape": [104, 104, 44, 330],
  "dcmmeta_slice_dim": 2,
  "dcmmeta_version": 0.6,
  "global": {
    "const": {
      "AcquisitionMatrix": [104, 0, 0, 104],
      "AngioFlag": "N",
      "BitsAllocated": 16,
      "BitsStored": 12,
      "Columns": 728,
      "EchoNumbers": 1,
      "EchoTime": 20.0,
      "EchoTrainLength": 1,
      "FlipAngle": 30.0,
      "HighBit": 11,
      "ImageOrientationPatient": [1.0, 0.0, 0.0, 0.0, 0.99904822159351, -0.0436193870985],
      "ImagePositionPatient": [-732.35835361481, -727.0013941103, 17.802086354127],
      "ImageType": [
        "ORIGINAL",
        "PRIMARY",
        "M",
        "MB",
        "ND",
        "MOSAIC"
],
      "ImagedNucleus": "1H",
      "ImagingFrequency": 297.228821,
      "InPlanePhaseEncodingDirection": "COL",
      "MRAcquisitionType": "2D",
      "MagneticFieldStrength": 6.98,
      "Manufacturer": "SIEMENS",
      "ManufacturerModelName": "Investigational_Device_7T",
      "Modality": "MR",
      "NumberOfAverages": 1.0,
      "NumberOfPhaseEncodingSteps": 91,
      "PercentPhaseFieldOfView": 100.0,
      "PercentSampling": 100.0,
      "PerformedProcedureStepStartTime": "132553.421000",
      "PhotometricInterpretation": "MONOCHROME2",
      "PixelBandwidth": 1717.0,
      "PixelRepresentation": 0,
      "PixelSpacing": [2.0, 2.0],
      "ProtocolName": "mbep2d_bold_mb2_p3_AP 2iso",
      "RepetitionTime": 1000.0,
      "Rows": 728,
      "SAR": 0.0,
      "SamplesPerPixel": 1,
      "ScanOptions": [
        "PFP",
        "FS"
],
      "ScanningSequence": "EP",
      "SequenceName": "epfid2d1_104",
      "SequenceVariant": [
        "SK",
        "SS"
],
      "SeriesDescription": "mbep2d_bold_mb2_p3_AP 2iso",
      "SeriesNumber": 33,
      "SeriesTime": "144858.656000",
      "SliceLocation": -13.926212518134,
      "SliceThickness": 2.0,
      "SmallestImagePixelValue": 0,
      "SoftwareVersions": "syngo MR B17",
      "SpacingBetweenSlices": 1.9999999344314,
      "SpecificCharacterSet": "ISO_IR 100",
      "StudyID": "1",
      "StudyTime": "132553.359000",
      "TransmitCoilName": "CFMM_8Tx32Rx",
      "VariableFlipAngleFlag": "N",
      "WindowCenterWidthExplanation": "Algo1",
      "dBdt": 0.0},
    "slices": {}
  },
  "time": {
    "samples": {
      "AcquisitionNumber": [1, 2, 3, 4, 5, 6, 7, 8, 9, 10, 11, 12, 13, 14, 15, 16, 17, 18, 19, 20, 21, 22, 23, 24, 25, 26, 27, 28, 29, 30, 31, 32, 33, 34, 35, 36, 37, 38, 39, 40, 41, 42, 43, 44, 45, 46, 47, 48, 49, 50, 51, 52, 53, 54, 55, 56, 57, 58, 59, 60, 61, 62, 63, 64, 65, 66, 67, 68, 69, 70, 71, 72, 73, 74, 75, 76, 77, 78, 79, 80, 81, 82, 83, 84, 85, 86, 87, 88, 89, 90, 91, 92, 93, 94, 95, 96, 97, 98, 99, 100, 101, 102, 103, 104, 105, 106, 107, 108, 109, 110, 111, 112, 113, 114, 115, 116, 117, 118, 119, 120, 121, 122, 123, 124, 125, 126, 127, 128, 129, 130, 131, 132, 133, 134, 135, 136, 137, 138, 139, 140, 141, 142, 143, 144, 145, 146, 147, 148, 149, 150, 151, 152, 153, 154, 155, 156, 157, 158, 159, 160, 161, 162, 163, 164, 165, 166, 167, 168, 169, 170, 171, 172, 173, 174, 175, 176, 177, 178, 179, 180, 181, 182, 183, 184, 185, 186, 187, 188, 189, 190, 191, 192, 193, 194, 195, 196, 197, 198, 199, 200, 201, 202, 203, 204, 205, 206, 207, 208, 209, 210, 211, 212, 213, 214, 215, 216, 217, 218, 219, 220, 221, 222, 223, 224, 225, 226, 227, 228, 229, 230, 231, 232, 233, 234, 235, 236, 237, 238, 239, 240, 241, 242, 243, 244, 245, 246, 247, 248, 249, 250, 251, 252, 253, 254, 255, 256, 257, 258, 259, 260, 261, 262, 263, 264, 265, 266, 267, 268, 269, 270, 271, 272, 273, 274, 275, 276, 277, 278, 279, 280, 281, 282, 283, 284, 285, 286, 287, 288, 289, 290, 291, 292, 293, 294, 295, 296, 297, 298, 299, 300, 301, 302, 303, 304, 305, 306, 307, 308, 309, 310, 311, 312, 313, 314, 315, 316, 317, 318, 319, 320, 321, 322, 323, 324, 325, 326, 327, 328, 329, 330],
      "AcquisitionTime": ["144825.265000", "144826.267500", "144827.272500", "144828.275000", "144829.280000", "144830.285000", "144831.287500", "144832.292500", "144833.295000", "144834.300000", "144835.305000", "144836.307500", "144837.312500", "144838.317500", "144839.320000", "144840.325000", "144841.327500", "144842.332500", "144843.337500", "144844.340000", "144845.345000", "144846.347500", "144847.352500", "144848.357500", "144849.360000", "144850.365000", "144851.367500", "144852.372500", "144853.377500", "144854.380000", "144855.385000", "144856.387500", "144857.392500", "144858.397500", "144859.400000", "144900.405000", "144901.407500", "144902.412500", "144903.417500", "144904.420000", "144905.425000", "144906.427500", "144907.432500", "144908.437500", "144909.440000", "144910.445000", "144911.450000", "144912.452500", "144913.457500", "144914.460000", "144915.465000", "144916.470000", "144917.472500", "144918.477500", "144919.480000", "144920.485000", "144921.490000", "144922.492500", "144923.497500", "144924.500000", "144925.505000", "144926.510000", "144927.512500", "144928.517500", "144929.520000", "144930.525000", "144931.530000", "144932.532500", "144933.537500", "144934.540000", "144935.545000", "144936.550000", "144937.552500", "144938.557500", "144939.562500", "144940.565000", "144941.570000", "144942.572500", "144943.577500", "144944.582500", "144945.585000", "144946.590000", "144947.592500", "144948.597500", "144949.602500", "144950.605000", "144951.610000", "144952.612500", "144953.617500", "144954.622500", "144955.625000", "144956.630000", "144957.632500", "144958.637500", "144959.642500", "145000.645000", "145001.650000", "145002.652500", "145003.657500", "145004.662500", "145005.665000", "145006.670000", "145007.672500", "145008.677500", "145009.682500", "145010.685000", "145011.690000", "145012.695000", "145013.697500", "145014.702500", "145015.705000", "145016.710000", "145017.715000", "145018.717500", "145019.722500", "145020.725000", "145021.730000", "145022.735000", "145023.737500", "145024.742500", "145025.745000", "145026.750000", "145027.755000", "145028.757500", "145029.762500", "145030.765000", "145031.770000", "145032.775000", "145033.777500", "145034.782500", "145035.785000", "145036.790000", "145037.795000", "145038.797500", "145039.802500", "145040.805000", "145041.810000", "145042.815000", "145043.817500", "145044.822500", "145045.827500", "145046.830000", "145047.835000", "145048.837500", "145049.842500", "145050.847500", "145051.850000", "145052.855000", "145053.857500", "145054.862500", "145055.867500", "145056.870000", "145057.875000", "145058.877500", "145059.882500", "145100.887500", "145101.890000", "145102.895000", "145103.897500", "145104.902500", "145105.907500", "145106.910000", "145107.915000", "145108.917500", "145109.922500", "145110.927500", "145111.930000", "145112.935000", "145113.940000", "145114.942500", "145115.947500", "145116.950000", "145117.955000", "145118.960000", "145119.962500", "145120.967500", "145121.970000", "145122.975000", "145123.980000", "145124.982500", "145125.987500", "145126.990000", "145127.995000", "145129.000000", "145130.002500", "145131.007500", "145132.010000", "145133.015000", "145134.020000", "145135.022500", "145136.027500", "145137.030000", "145138.035000", "145139.040000", "145140.042500", "145141.047500", "145142.050000", "145143.055000", "145144.060000", "145145.062500", "145146.067500", "145147.072500", "145148.075000", "145149.080000", "145150.082500", "145151.087500", "145152.092500", "145153.095000", "145154.100000", "145155.102500", "145156.107500", "145157.112500", "145158.115000", "145159.120000", "145200.122500", "145201.127500", "145202.132500", "145203.135000", "145204.140000", "145205.142500", "145206.147500", "145207.152500", "145208.155000", "145209.160000", "145210.162500", "145211.167500", "145212.172500", "145213.175000", "145214.180000", "145215.182500", "145216.187500", "145217.192500", "145218.195000", "145219.200000", "145220.205000", "145221.207500", "145222.212500", "145223.215000", "145224.220000", "145225.225000", "145226.227500", "145227.232500", "145228.235000", "145229.240000", "145230.245000", "145231.247500", "145232.252500", "145233.255000", "145234.260000", "145235.265000", "145236.267500", "145237.272500", "145238.275000", "145239.280000", "145240.285000", "145241.287500", "145242.292500", "145243.295000", "145244.300000", "145245.305000", "145246.307500", "145247.312500", "145248.317500", "145249.320000", "145250.325000", "145251.327500", "145252.332500", "145253.337500", "145254.340000", "145255.345000", "145256.347500", "145257.352500", "145258.357500", "145259.360000", "145300.365000", "145301.367500", "145302.372500", "145303.377500", "145304.380000", "145305.385000", "145306.387500", "145307.392500", "145308.397500", "145309.400000", "145310.405000", "145311.407500", "145312.412500", "145313.417500", "145314.420000", "145315.425000", "145316.427500", "145317.432500", "145318.437500", "145319.440000", "145320.445000", "145321.450000", "145322.452500", "145323.457500", "145324.460000", "145325.465000", "145326.470000", "145327.472500", "145328.477500", "145329.480000", "145330.485000", "145331.490000", "145332.492500", "145333.497500", "145334.500000", "145335.505000", "145336.510000", "145337.512500", "145338.517500", "145339.520000", "145340.525000", "145341.530000", "145342.532500", "145343.537500", "145344.540000", "145345.545000", "145346.550000", "145347.552500", "145348.557500", "145349.562500", "145350.565000", "145351.570000", "145352.572500", "145353.577500", "145354.582500", "145355.585000"],
      "ContentTime": ["144858.656000", "144858.671000", "144858.671000", "144858.671000", "144858.671000", "144858.687000", "144858.687000", "144858.687000", "144858.687000", "144858.687000", "144858.687000", "144858.687000", "144858.703000", "144858.703000", "144858.703000", "144858.703000", "144858.703000", "144858.703000", "144858.703000", "144858.703000", "144858.718000", "144858.718000", "144858.718000", "144858.718000", "144858.718000", "144858.718000", "144858.718000", "144858.734000", "144858.734000", "144858.734000", "144858.734000", "144858.734000", "144918.625000", "144918.625000", "144918.625000", "144918.625000", "144918.625000", "144918.640000", "144918.640000", "144918.640000", "144918.640000", "144918.640000", "144918.640000", "144918.640000", "144918.640000", "144918.656000", "144918.656000", "144918.656000", "144918.656000", "144918.656000", "144918.656000", "144918.656000", "144938.625000", "144938.625000", "144938.625000", "144938.625000", "144938.625000", "144938.640000", "144938.640000", "144938.640000", "144938.640000", "144938.640000", "144938.640000", "144938.640000", "144938.656000", "144938.656000", "144938.656000", "144938.656000", "144938.656000", "144938.656000", "144938.671000", "144938.671000", "144958.625000", "144958.625000", "144958.625000", "144958.625000", "144958.625000", "144958.640000", "144958.640000", "144958.640000", "144958.640000", "144958.640000", "144958.640000", "144958.640000", "144958.640000", "144958.656000", "144958.656000", "144958.656000", "144958.656000", "144958.656000", "144958.656000", "144958.671000", "145018.625000", "145018.625000", "145018.625000", "145018.625000", "145018.625000", "145018.640000", "145018.640000", "145018.640000", "145018.640000", "145018.640000", "145018.640000", "145018.640000", "145018.640000", "145018.656000", "145018.656000", "145018.656000", "145018.656000", "145018.656000", "145018.656000", "145018.656000", "145038.625000", "145038.625000", "145038.625000", "145038.625000", "145038.625000", "145038.640000", "145038.640000", "145038.640000", "145038.640000", "145038.640000", "145038.640000", "145038.656000", "145038.656000", "145038.656000", "145038.656000", "145038.656000", "145038.656000", "145038.656000", "145038.656000", "145038.671000", "145058.625000", "145058.625000", "145058.625000", "145058.640000", "145058.640000", "145058.640000", "145058.640000", "145058.640000", "145058.640000", "145058.640000", "145058.640000", "145058.656000", "145058.656000", "145058.656000", "145058.656000", "145058.671000", "145058.671000", "145058.671000", "145058.671000", "145058.671000", "145118.625000", "145118.625000", "145118.625000", "145118.625000", "145118.625000", "145118.640000", "145118.640000", "145118.640000", "145118.640000", "145118.640000", "145118.640000", "145118.656000", "145118.656000", "145118.656000", "145118.656000", "145118.656000", "145118.656000", "145118.656000", "145118.671000", "145118.671000", "145138.625000", "145138.625000", "145138.640000", "145138.640000", "145138.640000", "145138.640000", "145138.640000", "145138.640000", "145138.640000", "145138.656000", "145138.656000", "145138.656000", "145138.656000", "145138.656000", "145138.656000", "145138.656000", "145138.671000", "145138.671000", "145138.671000", "145138.671000", "145158.625000", "145158.625000", "145158.625000", "145158.640000", "145158.640000", "145158.640000", "145158.640000", "145158.640000", "145158.640000", "145158.640000", "145158.640000", "145158.656000", "145158.656000", "145158.656000", "145158.656000", "145158.656000", "145158.671000", "145158.671000", "145158.671000", "145158.671000", "145218.625000", "145218.625000", "145218.625000", "145218.625000", "145218.625000", "145218.640000", "145218.640000", "145218.640000", "145218.640000", "145218.640000", "145218.640000", "145218.656000", "145218.656000", "145218.656000", "145218.656000", "145218.656000", "145218.656000", "145218.656000", "145218.671000", "145218.671000", "145238.625000", "145238.625000", "145238.625000", "145238.625000", "145238.640000", "145238.640000", "145238.640000", "145238.640000", "145238.640000", "145238.640000", "145238.656000", "145238.656000", "145238.656000", "145238.656000", "145238.671000", "145238.671000", "145238.671000", "145238.671000", "145238.671000", "145238.671000", "145258.625000", "145258.625000", "145258.625000", "145258.625000", "145258.625000", "145258.640000", "145258.640000", "145258.640000", "145258.640000", "145258.640000", "145258.656000", "145258.656000", "145258.656000", "145258.656000", "145258.656000", "145258.656000", "145258.656000", "145258.656000", "145258.671000", "145258.671000", "145318.625000", "145318.625000", "145318.625000", "145318.625000", "145318.625000", "145318.640000", "145318.640000", "145318.640000", "145318.640000", "145318.640000", "145318.640000", "145318.640000", "145318.640000", "145318.656000", "145318.656000", "145318.656000", "145318.656000", "145318.656000", "145318.656000", "145318.656000", "145338.625000", "145338.625000", "145338.625000", "145338.640000", "145338.640000", "145338.640000", "145338.640000", "145338.640000", "145338.640000", "145338.640000", "145338.640000", "145338.656000", "145338.656000", "145338.656000", "145338.656000", "145338.656000", "145338.656000", "145338.656000", "145338.671000", "145338.671000", "145401.296000", "145401.296000", "145401.296000", "145401.296000", "145401.296000", "145401.296000", "145401.312000", "145401.312000", "145401.312000", "145401.312000", "145401.312000", "145401.328000", "145401.328000", "145401.328000", "145401.328000", "145401.328000", "145401.328000", "145401.343000"],
      "InstanceCreationTime": ["144858.656000", "144858.671000", "144858.671000", "144858.671000", "144858.671000", "144858.687000", "144858.687000", "144858.687000", "144858.687000", "144858.687000", "144858.687000", "144858.687000", "144858.703000", "144858.703000", "144858.703000", "144858.703000", "144858.703000", "144858.703000", "144858.703000", "144858.703000", "144858.718000", "144858.718000", "144858.718000", "144858.718000", "144858.718000", "144858.718000", "144858.718000", "144858.734000", "144858.734000", "144858.734000", "144858.734000", "144858.734000", "144918.625000", "144918.625000", "144918.625000", "144918.625000", "144918.625000", "144918.640000", "144918.640000", "144918.640000", "144918.640000", "144918.640000", "144918.640000", "144918.640000", "144918.640000", "144918.656000", "144918.656000", "144918.656000", "144918.656000", "144918.656000", "144918.656000", "144918.656000", "144938.625000", "144938.625000", "144938.625000", "144938.625000", "144938.625000", "144938.640000", "144938.640000", "144938.640000", "144938.640000", "144938.640000", "144938.640000", "144938.640000", "144938.656000", "144938.656000", "144938.656000", "144938.656000", "144938.656000", "144938.656000", "144938.671000", "144938.671000", "144958.625000", "144958.625000", "144958.625000", "144958.625000", "144958.625000", "144958.640000", "144958.640000", "144958.640000", "144958.640000", "144958.640000", "144958.640000", "144958.640000", "144958.640000", "144958.656000", "144958.656000", "144958.656000", "144958.656000", "144958.656000", "144958.656000", "144958.671000", "145018.625000", "145018.625000", "145018.625000", "145018.625000", "145018.625000", "145018.640000", "145018.640000", "145018.640000", "145018.640000", "145018.640000", "145018.640000", "145018.640000", "145018.640000", "145018.656000", "145018.656000", "145018.656000", "145018.656000", "145018.656000", "145018.656000", "145018.656000", "145038.625000", "145038.625000", "145038.625000", "145038.625000", "145038.625000", "145038.640000", "145038.640000", "145038.640000", "145038.640000", "145038.640000", "145038.640000", "145038.656000", "145038.656000", "145038.656000", "145038.656000", "145038.656000", "145038.656000", "145038.656000", "145038.656000", "145038.671000", "145058.625000", "145058.625000", "145058.625000", "145058.640000", "145058.640000", "145058.640000", "145058.640000", "145058.640000", "145058.640000", "145058.640000", "145058.640000", "145058.656000", "145058.656000", "145058.656000", "145058.656000", "145058.671000", "145058.671000", "145058.671000", "145058.671000", "145058.671000", "145118.625000", "145118.625000", "145118.625000", "145118.625000", "145118.625000", "145118.640000", "145118.640000", "145118.640000", "145118.640000", "145118.640000", "145118.640000", "145118.656000", "145118.656000", "145118.656000", "145118.656000", "145118.656000", "145118.656000", "145118.656000", "145118.671000", "145118.671000", "145138.625000", "145138.625000", "145138.640000", "145138.640000", "145138.640000", "145138.640000", "145138.640000", "145138.640000", "145138.640000", "145138.656000", "145138.656000", "145138.656000", "145138.656000", "145138.656000", "145138.656000", "145138.656000", "145138.671000", "145138.671000", "145138.671000", "145138.671000", "145158.625000", "145158.625000", "145158.625000", "145158.640000", "145158.640000", "145158.640000", "145158.640000", "145158.640000", "145158.640000", "145158.640000", "145158.640000", "145158.656000", "145158.656000", "145158.656000", "145158.656000", "145158.656000", "145158.671000", "145158.671000", "145158.671000", "145158.671000", "145218.625000", "145218.625000", "145218.625000", "145218.625000", "145218.625000", "145218.640000", "145218.640000", "145218.640000", "145218.640000", "145218.640000", "145218.640000", "145218.656000", "145218.656000", "145218.656000", "145218.656000", "145218.656000", "145218.656000", "145218.656000", "145218.671000", "145218.671000", "145238.625000", "145238.625000", "145238.625000", "145238.625000", "145238.640000", "145238.640000", "145238.640000", "145238.640000", "145238.640000", "145238.640000", "145238.656000", "145238.656000", "145238.656000", "145238.656000", "145238.671000", "145238.671000", "145238.671000", "145238.671000", "145238.671000", "145238.671000", "145258.625000", "145258.625000", "145258.625000", "145258.625000", "145258.625000", "145258.640000", "145258.640000", "145258.640000", "145258.640000", "145258.640000", "145258.656000", "145258.656000", "145258.656000", "145258.656000", "145258.656000", "145258.656000", "145258.656000", "145258.656000", "145258.671000", "145258.671000", "145318.625000", "145318.625000", "145318.625000", "145318.625000", "145318.625000", "145318.640000", "145318.640000", "145318.640000", "145318.640000", "145318.640000", "145318.640000", "145318.640000", "145318.640000", "145318.656000", "145318.656000", "145318.656000", "145318.656000", "145318.656000", "145318.656000", "145318.656000", "145338.625000", "145338.625000", "145338.625000", "145338.640000", "145338.640000", "145338.640000", "145338.640000", "145338.640000", "145338.640000", "145338.640000", "145338.640000", "145338.656000", "145338.656000", "145338.656000", "145338.656000", "145338.656000", "145338.656000", "145338.656000", "145338.671000", "145338.671000", "145401.296000", "145401.296000", "145401.296000", "145401.296000", "145401.296000", "145401.296000", "145401.312000", "145401.312000", "145401.312000", "145401.312000", "145401.312000", "145401.328000", "145401.328000", "145401.328000", "145401.328000", "145401.328000", "145401.328000", "145401.343000"],
      "InstanceNumber": [1, 2, 3, 4, 5, 6, 7, 8, 9, 10, 11, 12, 13, 14, 15, 16, 17, 18, 19, 20, 21, 22, 23, 24, 25, 26, 27, 28, 29, 30, 31, 32, 33, 34, 35, 36, 37, 38, 39, 40, 41, 42, 43, 44, 45, 46, 47, 48, 49, 50, 51, 52, 53, 54, 55, 56, 57, 58, 59, 60, 61, 62, 63, 64, 65, 66, 67, 68, 69, 70, 71, 72, 73, 74, 75, 76, 77, 78, 79, 80, 81, 82, 83, 84, 85, 86, 87, 88, 89, 90, 91, 92, 93, 94, 95, 96, 97, 98, 99, 100, 101, 102, 103, 104, 105, 106, 107, 108, 109, 110, 111, 112, 113, 114, 115, 116, 117, 118, 119, 120, 121, 122, 123, 124, 125, 126, 127, 128, 129, 130, 131, 132, 133, 134, 135, 136, 137, 138, 139, 140, 141, 142, 143, 144, 145, 146, 147, 148, 149, 150, 151, 152, 153, 154, 155, 156, 157, 158, 159, 160, 161, 162, 163, 164, 165, 166, 167, 168, 169, 170, 171, 172, 173, 174, 175, 176, 177, 178, 179, 180, 181, 182, 183, 184, 185, 186, 187, 188, 189, 190, 191, 192, 193, 194, 195, 196, 197, 198, 199, 200, 201, 202, 203, 204, 205, 206, 207, 208, 209, 210, 211, 212, 213, 214, 215, 216, 217, 218, 219, 220, 221, 222, 223, 224, 225, 226, 227, 228, 229, 230, 231, 232, 233, 234, 235, 236, 237, 238, 239, 240, 241, 242, 243, 244, 245, 246, 247, 248, 249, 250, 251, 252, 253, 254, 255, 256, 257, 258, 259, 260, 261, 262, 263, 264, 265, 266, 267, 268, 269, 270, 271, 272, 273, 274, 275, 276, 277, 278, 279, 280, 281, 282, 283, 284, 285, 286, 287, 288, 289, 290, 291, 292, 293, 294, 295, 296, 297, 298, 299, 300, 301, 302, 303, 304, 305, 306, 307, 308, 309, 310, 311, 312, 313, 314, 315, 316, 317, 318, 319, 320, 321, 322, 323, 324, 325, 326, 327, 328, 329, 330],
      "LargestImagePixelValue": [2235, 2255, 2236, 2210, 2222, 2194, 2237, 2254, 2223, 2206, 2200, 2204, 2214, 2204, 2190, 2174, 2201, 2228, 2206, 2183, 2200, 2205, 2201, 2202, 2184, 2191, 2225, 2199, 2216, 2202, 2202, 2209, 2183, 2185, 2204, 2212, 2198, 2280, 2207, 2209, 2258, 2215, 2224, 2229, 2224, 2262, 2220, 2256, 2245, 2275, 2227, 2205, 2235, 2308, 2239, 2229, 2322, 2215, 2261, 2296, 2218, 2235, 2315, 2228, 2218, 2202, 2230, 2208, 2303, 2312, 2229, 2238, 2277, 2229, 2231, 2292, 2237, 2282, 2212, 2256, 2234, 2242, 2340, 2248, 2298, 2345, 2270, 2267, 2240, 2300, 2250, 2235, 2324, 2252, 2260, 2326, 2259, 2258, 2244, 2251, 2249, 2268, 2347, 2292, 2283, 2350, 2277, 2266, 2383, 2360, 2328, 2298, 2306, 2343, 2253, 2265, 2325, 2278, 2273, 2298, 2330, 2253, 2248, 2255, 2265, 2240, 2302, 2359, 2250, 2321, 2289, 2244, 2336, 2284, 2299, 2299, 2245, 2278, 2333, 2256, 2266, 2328, 2293, 2352, 2308, 2292, 2227, 2276, 2357, 2352, 2297, 2356, 2321, 2249, 2306, 2228, 2233, 2357, 2245, 2248, 2269, 2269, 2227, 2250, 2232, 2252, 2218, 2259, 2296, 2236, 2237, 2201, 2250, 2230, 2287, 2377, 2311, 2351, 2388, 2351, 2303, 2343, 2308, 2320, 2377, 2280, 2295, 2297, 2294, 2341, 2246, 2231, 2260, 2276, 2272, 2251, 2371, 2302, 2205, 2257, 2243, 2223, 2265, 2245, 2239, 2229, 2236, 2228, 2278, 2371, 2278, 2267, 2337, 2237, 2195, 2280, 2217, 2182, 2328, 2272, 2200, 2220, 2238, 2233, 2304, 2209, 2213, 2291, 2216, 2282, 2195, 2178, 2291, 2265, 2219, 2294, 2243, 2227, 2260, 2224, 2199, 2314, 2244, 2213, 2299, 2234, 2234, 2286, 2253, 2237, 2235, 2276, 2206, 2184, 2252, 2177, 2216, 2183, 2198, 2170, 2184, 2199, 2183, 2168, 2174, 2183, 2164, 2168, 2198, 2137, 2159, 2213, 2168, 2183, 2181, 2124, 2168, 2155, 2139, 2142, 2156, 2174, 2135, 2149, 2188, 2199, 2152, 2201, 2185, 2183, 2179, 2249, 2200, 2222, 2183, 2168, 2170, 2189, 2184, 2187, 2190, 2159, 2151, 2159, 2149, 2175, 2168, 2165, 2135, 2160, 2164, 2165, 2177, 2175, 2155, 2138, 2158, 2175, 2161, 2168, 2165, 2120, 2134, 2161, 2134, 2136, 2139, 2134, 2118, 2197],
      "WindowCenter": [456.0, 456.0, 456.0, 455.0, 454.0, 454.0, 455.0, 454.0, 453.0, 453.0, 455.0, 455.0, 455.0, 455.0, 455.0, 455.0, 455.0, 455.0, 455.0, 454.0, 455.0, 455.0, 455.0, 456.0, 457.0, 457.0, 458.0, 456.0, 456.0, 455.0, 454.0, 453.0, 452.0, 453.0, 453.0, 453.0, 454.0, 456.0, 455.0, 455.0, 456.0, 454.0, 454.0, 454.0, 455.0, 456.0, 456.0, 456.0, 455.0, 454.0, 454.0, 454.0, 455.0, 457.0, 457.0, 456.0, 457.0, 455.0, 454.0, 455.0, 454.0, 455.0, 456.0, 455.0, 454.0, 453.0, 453.0, 452.0, 455.0, 456.0, 457.0, 457.0, 458.0, 456.0, 456.0, 456.0, 454.0, 452.0, 451.0, 451.0, 453.0, 454.0, 457.0, 457.0, 458.0, 458.0, 457.0, 455.0, 454.0, 455.0, 453.0, 454.0, 456.0, 456.0, 456.0, 458.0, 456.0, 456.0, 454.0, 454.0, 454.0, 454.0, 456.0, 455.0, 455.0, 457.0, 456.0, 455.0, 457.0, 457.0, 456.0, 456.0, 456.0, 457.0, 456.0, 455.0, 456.0, 455.0, 454.0, 455.0, 456.0, 455.0, 456.0, 456.0, 457.0, 457.0, 458.0, 457.0, 454.0, 455.0, 454.0, 454.0, 456.0, 456.0, 456.0, 455.0, 454.0, 454.0, 455.0, 455.0, 455.0, 456.0, 455.0, 455.0, 453.0, 453.0, 451.0, 453.0, 455.0, 456.0, 456.0, 458.0, 457.0, 456.0, 456.0, 454.0, 454.0, 456.0, 455.0, 455.0, 454.0, 453.0, 452.0, 454.0, 454.0, 455.0, 453.0, 454.0, 454.0, 452.0, 451.0, 450.0, 452.0, 452.0, 454.0, 456.0, 456.0, 457.0, 457.0, 457.0, 456.0, 457.0, 455.0, 456.0, 457.0, 457.0, 458.0, 459.0, 458.0, 458.0, 456.0, 455.0, 455.0, 455.0, 453.0, 453.0, 455.0, 454.0, 455.0, 456.0, 456.0, 457.0, 457.0, 457.0, 456.0, 455.0, 454.0, 453.0, 454.0, 455.0, 455.0, 455.0, 457.0, 457.0, 457.0, 458.0, 457.0, 455.0, 457.0, 456.0, 454.0, 455.0, 455.0, 455.0, 456.0, 456.0, 456.0, 458.0, 456.0, 456.0, 455.0, 454.0, 456.0, 455.0, 455.0, 456.0, 456.0, 456.0, 456.0, 456.0, 455.0, 456.0, 455.0, 454.0, 452.0, 454.0, 454.0, 455.0, 457.0, 457.0, 458.0, 458.0, 456.0, 455.0, 456.0, 454.0, 454.0, 453.0, 454.0, 453.0, 453.0, 454.0, 453.0, 454.0, 454.0, 454.0, 454.0, 454.0, 455.0, 454.0, 456.0, 458.0, 458.0, 459.0, 459.0, 457.0, 457.0, 457.0, 455.0, 454.0, 454.0, 454.0, 453.0, 454.0, 455.0, 457.0, 456.0, 458.0, 457.0, 455.0, 456.0, 454.0, 454.0, 455.0, 456.0, 457.0, 458.0, 459.0, 458.0, 458.0, 457.0, 456.0, 455.0, 454.0, 454.0, 454.0, 454.0, 455.0, 455.0, 455.0, 455.0, 456.0, 455.0, 455.0, 454.0, 453.0, 453.0, 454.0, 453.0, 453.0, 454.0, 454.0, 455.0, 456.0, 456.0, 455.0, 455.0, 454.0, 453.0, 455.0],
