{
  "AcquisitionMatrixPE": 104,
  "AcquisitionNumber": 1,
  "AcquisitionTime": "14:12:34.607500",
  "BandwidthPerPixelPhaseEncode": 43.054,
  "BaseResolution": 104,
  "CoilString": "C:E1_2",
  "ConversionSoftware": "dcm2niix",
  "ConversionSoftwareVersion": "v1.0.20191031",
  "DerivedVendorReportedEchoSpacing": 0.000669999,
  "DeviceSerialNumber": "18932",
  "DwellTime": 2.8e-06,
  "EchoTime": 0.02,
  "EffectiveEchoSpacing": 0.000223333,
  "FlipAngle": 30,
  "ImageComments": "Unaliased_MB2_PE2",
  "ImageOrientationPatientDICOM": [1, 0, 0, 0, 0.999048, -0.0436194],
  "ImageType": [
    "ORIGINAL",
    "PRIMARY",
    "M",
    "MB",
    "ND",
    "MOSAIC"
],
  "ImagingFrequency": 297.229,
  "InPlanePhaseEncodingDirectionDICOM": "COL",
  "InstitutionAddress": "Richmond_Street_North_1151_London_409EF2_Ontario_CA_N6A_5B7",
  "InstitutionName": "Robarts_Reserch_Institute",
  "InstitutionalDepartmentName": "Department",
  "MRAcquisitionType": "2D",
  "MagneticFieldStrength": 6.98,
  "Manufacturer": "Siemens",
  "ManufacturersModelName": "Investigational_Device_7T",
  "Modality": "MR",
  "MultibandAccelerationFactor": 2,
  "ParallelReductionFactorInPlane": 3,
  "PartialFourier": 0.875,
  "PatientPosition": "HFS",
  "PercentPhaseFOV": 100,
  "PhaseEncodingDirection": "j-",
  "PhaseEncodingSteps": 91,
  "PhaseResolution": 1,
  "PixelBandwidth": 1717,
  "ProcedureStepDescription": "Diedrichsen_SeqRep4",
  "ProtocolName": "mbep2d_bold_mb2_p3_AP_2iso",
  "PulseSequenceDetails": "%CustomerSeq%_cmrr_mbep2d_bold",
  "ReceiveCoilName": "CFMM_8Tx32Rx",
  "ReconMatrixPE": 104,
  "RefLinesPE": 36,
  "RepetitionTime": 1,
  "ScanOptions": "PFP_FS",
  "ScanningSequence": "EP",
  "SequenceName": "epfid2d1_104",
  "SequenceVariant": "SK_SS",
  "SeriesDescription": "mbep2d_bold_mb2_p3_AP_2iso",
  "SeriesNumber": 20,
  "ShimSetting": [30, 2004, 104, 1434, 84, 146, 137, -93],
  "SliceThickness": 2,
  "SliceTiming": [0, 0.2275, 0.455, 0.6825, 0.91, 0.135, 0.3625, 0.5925, 0.82, 0.045, 0.2725, 0.5, 0.7275, 0.9575, 0.1825, 0.41, 0.6375, 0.865, 0.09, 0.3175, 0.545, 0.775, 0, 0.2275, 0.455, 0.6825, 0.91, 0.135, 0.3625, 0.5925, 0.82, 0.045, 0.2725, 0.5, 0.7275, 0.9575, 0.1825, 0.41, 0.6375, 0.865, 0.09, 0.3175, 0.545, 0.775],
  "SoftwareVersions": "syngo_MR_B17",
  "SpacingBetweenSlices": 2,
  "StationName": "MASTER",
  "TaskName": "dsp",
  "TotalReadoutTime": 0.0230033,
  "TxRefAmp": 120,
  "dcmmeta_affine": [
    [-2.0, 0.0, 0.0, 108.35835266113281],
    [0.0, 1.9980964660644531, -0.08723877370357513, -102.20863342285156],
    [0.0, 0.08723877370357513, 1.9980963468551636, -18.40200424194336],
    [0.0, 0.0, 0.0, 1.0]
],
  "dcmmeta_reorient_transform": [
    [0.0, -1.0, 0.0, 103.0],
    [1.0, 0.0, 0.0, 0.0],
    [0.0, 0.0, 1.0, 0.0],
    [0.0, 0.0, 0.0, 1.0]
],
  "dcmmeta_shape": [104, 104, 44, 330],
  "dcmmeta_slice_dim": 2,
  "dcmmeta_version": 0.6,
  "global": {
    "const": {
      "AcquisitionMatrix": [104, 0, 0, 104],
      "AngioFlag": "N",
      "BitsAllocated": 16,
      "BitsStored": 12,
      "Columns": 728,
      "EchoNumbers": 1,
      "EchoTime": 20.0,
      "EchoTrainLength": 1,
      "FlipAngle": 30.0,
      "HighBit": 11,
      "ImageOrientationPatient": [1.0, 0.0, 0.0, 0.0, 0.99904822159351, -0.0436193870985],
      "ImagePositionPatient": [-732.35835361481, -727.0013941103, 17.802086354127],
      "ImageType": [
        "ORIGINAL",
        "PRIMARY",
        "M",
        "MB",
        "ND",
        "MOSAIC"
],
      "ImagedNucleus": "1H",
      "ImagingFrequency": 297.228793,
      "InPlanePhaseEncodingDirection": "COL",
      "MRAcquisitionType": "2D",
      "MagneticFieldStrength": 6.98,
      "Manufacturer": "SIEMENS",
      "ManufacturerModelName": "Investigational_Device_7T",
      "Modality": "MR",
      "NumberOfAverages": 1.0,
      "NumberOfPhaseEncodingSteps": 91,
      "PercentPhaseFieldOfView": 100.0,
      "PercentSampling": 100.0,
      "PerformedProcedureStepStartTime": "132553.421000",
      "PhotometricInterpretation": "MONOCHROME2",
      "PixelBandwidth": 1717.0,
      "PixelRepresentation": 0,
      "PixelSpacing": [2.0, 2.0],
      "ProtocolName": "mbep2d_bold_mb2_p3_AP 2iso",
      "RepetitionTime": 1000.0,
      "Rows": 728,
      "SAR": 0.0,
      "SamplesPerPixel": 1,
      "ScanOptions": [
        "PFP",
        "FS"
],
      "ScanningSequence": "EP",
      "SequenceName": "epfid2d1_104",
      "SequenceVariant": [
        "SK",
        "SS"
],
      "SeriesDescription": "mbep2d_bold_mb2_p3_AP 2iso",
      "SeriesNumber": 20,
      "SeriesTime": "141315.468000",
      "SliceLocation": -13.926212518134,
      "SliceThickness": 2.0,
      "SmallestImagePixelValue": 0,
      "SoftwareVersions": "syngo MR B17",
      "SpacingBetweenSlices": 1.9999999344314,
      "SpecificCharacterSet": "ISO_IR 100",
      "StudyID": "1",
      "StudyTime": "132553.359000",
      "TransmitCoilName": "CFMM_8Tx32Rx",
      "VariableFlipAngleFlag": "N",
      "WindowCenterWidthExplanation": "Algo1",
      "dBdt": 0.0},
    "slices": {}
  },
  "time": {
    "samples": {
      "AcquisitionNumber": [1, 2, 3, 4, 5, 6, 7, 8, 9, 10, 11, 12, 13, 14, 15, 16, 17, 18, 19, 20, 21, 22, 23, 24, 25, 26, 27, 28, 29, 30, 31, 32, 33, 34, 35, 36, 37, 38, 39, 40, 41, 42, 43, 44, 45, 46, 47, 48, 49, 50, 51, 52, 53, 54, 55, 56, 57, 58, 59, 60, 61, 62, 63, 64, 65, 66, 67, 68, 69, 70, 71, 72, 73, 74, 75, 76, 77, 78, 79, 80, 81, 82, 83, 84, 85, 86, 87, 88, 89, 90, 91, 92, 93, 94, 95, 96, 97, 98, 99, 100, 101, 102, 103, 104, 105, 106, 107, 108, 109, 110, 111, 112, 113, 114, 115, 116, 117, 118, 119, 120, 121, 122, 123, 124, 125, 126, 127, 128, 129, 130, 131, 132, 133, 134, 135, 136, 137, 138, 139, 140, 141, 142, 143, 144, 145, 146, 147, 148, 149, 150, 151, 152, 153, 154, 155, 156, 157, 158, 159, 160, 161, 162, 163, 164, 165, 166, 167, 168, 169, 170, 171, 172, 173, 174, 175, 176, 177, 178, 179, 180, 181, 182, 183, 184, 185, 186, 187, 188, 189, 190, 191, 192, 193, 194, 195, 196, 197, 198, 199, 200, 201, 202, 203, 204, 205, 206, 207, 208, 209, 210, 211, 212, 213, 214, 215, 216, 217, 218, 219, 220, 221, 222, 223, 224, 225, 226, 227, 228, 229, 230, 231, 232, 233, 234, 235, 236, 237, 238, 239, 240, 241, 242, 243, 244, 245, 246, 247, 248, 249, 250, 251, 252, 253, 254, 255, 256, 257, 258, 259, 260, 261, 262, 263, 264, 265, 266, 267, 268, 269, 270, 271, 272, 273, 274, 275, 276, 277, 278, 279, 280, 281, 282, 283, 284, 285, 286, 287, 288, 289, 290, 291, 292, 293, 294, 295, 296, 297, 298, 299, 300, 301, 302, 303, 304, 305, 306, 307, 308, 309, 310, 311, 312, 313, 314, 315, 316, 317, 318, 319, 320, 321, 322, 323, 324, 325, 326, 327, 328, 329, 330],
      "AcquisitionTime": ["141234.607500", "141235.610000", "141236.615000", "141237.617500", "141238.622500", "141239.627500", "141240.630000", "141241.635000", "141242.637500", "141243.642500", "141244.647500", "141245.650000", "141246.655000", "141247.657500", "141248.662500", "141249.667500", "141250.670000", "141251.675000", "141252.677500", "141253.682500", "141254.687500", "141255.690000", "141256.695000", "141257.697500", "141258.702500", "141259.707500", "141300.710000", "141301.715000", "141302.720000", "141303.722500", "141304.727500", "141305.730000", "141306.735000", "141307.740000", "141308.742500", "141309.747500", "141310.750000", "141311.755000", "141312.760000", "141313.762500", "141314.767500", "141315.770000", "141316.775000", "141317.780000", "141318.782500", "141319.787500", "141320.790000", "141321.795000", "141322.800000", "141323.802500", "141324.807500", "141325.810000", "141326.815000", "141327.820000", "141328.822500", "141329.827500", "141330.830000", "141331.835000", "141332.840000", "141333.842500", "141334.847500", "141335.852500", "141336.855000", "141337.860000", "141338.862500", "141339.867500", "141340.872500", "141341.875000", "141342.880000", "141343.882500", "141344.887500", "141345.892500", "141346.895000", "141347.900000", "141348.902500", "141349.907500", "141350.912500", "141351.915000", "141352.920000", "141353.922500", "141354.927500", "141355.932500", "141356.935000", "141357.940000", "141358.942500", "141359.947500", "141400.952500", "141401.955000", "141402.960000", "141403.965000", "141404.967500", "141405.972500", "141406.975000", "141407.980000", "141408.985000", "141409.987500", "141410.992500", "141411.995000", "141413.000000", "141414.005000", "141415.007500", "141416.012500", "141417.015000", "141418.020000", "141419.025000", "141420.027500", "141421.032500", "141422.035000", "141423.040000", "141424.045000", "141425.047500", "141426.052500", "141427.055000", "141428.060000", "141429.065000", "141430.067500", "141431.072500", "141432.075000", "141433.080000", "141434.085000", "141435.087500", "141436.092500", "141437.097500", "141438.100000", "141439.105000", "141440.107500", "141441.112500", "141442.117500", "141443.120000", "141444.125000", "141445.127500", "141446.132500", "141447.137500", "141448.140000", "141449.145000", "141450.147500", "141451.152500", "141452.157500", "141453.160000", "141454.165000", "141455.167500", "141456.172500", "141457.177500", "141458.180000", "141459.185000", "141500.187500", "141501.192500", "141502.197500", "141503.200000", "141504.205000", "141505.210000", "141506.212500", "141507.217500", "141508.220000", "141509.225000", "141510.230000", "141511.232500", "141512.237500", "141513.240000", "141514.245000", "141515.250000", "141516.252500", "141517.257500", "141518.260000", "141519.265000", "141520.270000", "141521.272500", "141522.277500", "141523.280000", "141524.285000", "141525.290000", "141526.292500", "141527.297500", "141528.300000", "141529.305000", "141530.310000", "141531.312500", "141532.317500", "141533.320000", "141534.325000", "141535.330000", "141536.332500", "141537.337500", "141538.342500", "141539.345000", "141540.350000", "141541.352500", "141542.357500", "141543.362500", "141544.365000", "141545.370000", "141546.372500", "141547.377500", "141548.382500", "141549.385000", "141550.390000", "141551.392500", "141552.397500", "141553.402500", "141554.405000", "141555.410000", "141556.412500", "141557.417500", "141558.422500", "141559.425000", "141600.430000", "141601.432500", "141602.437500", "141603.442500", "141604.445000", "141605.450000", "141606.452500", "141607.457500", "141608.462500", "141609.465000", "141610.470000", "141611.475000", "141612.477500", "141613.482500", "141614.485000", "141615.490000", "141616.495000", "141617.497500", "141618.502500", "141619.505000", "141620.510000", "141621.515000", "141622.517500", "141623.522500", "141624.525000", "141625.530000", "141626.535000", "141627.537500", "141628.542500", "141629.545000", "141630.550000", "141631.555000", "141632.557500", "141633.562500", "141634.565000", "141635.570000", "141636.575000", "141637.577500", "141638.582500", "141639.587500", "141640.590000", "141641.595000", "141642.597500", "141643.602500", "141644.607500", "141645.610000", "141646.615000", "141647.617500", "141648.622500", "141649.627500", "141650.630000", "141651.635000", "141652.637500", "141653.642500", "141654.647500", "141655.650000", "141656.655000", "141657.657500", "141658.662500", "141659.667500", "141700.670000", "141701.675000", "141702.677500", "141703.682500", "141704.687500", "141705.690000", "141706.695000", "141707.697500", "141708.702500", "141709.707500", "141710.710000", "141711.715000", "141712.720000", "141713.722500", "141714.727500", "141715.730000", "141716.735000", "141717.740000", "141718.742500", "141719.747500", "141720.750000", "141721.755000", "141722.760000", "141723.762500", "141724.767500", "141725.770000", "141726.775000", "141727.780000", "141728.782500", "141729.787500", "141730.790000", "141731.795000", "141732.800000", "141733.802500", "141734.807500", "141735.810000", "141736.815000", "141737.820000", "141738.822500", "141739.827500", "141740.830000", "141741.835000", "141742.840000", "141743.842500", "141744.847500", "141745.852500", "141746.855000", "141747.860000", "141748.862500", "141749.867500", "141750.872500", "141751.875000", "141752.880000", "141753.882500", "141754.887500", "141755.892500", "141756.895000", "141757.900000", "141758.902500", "141759.907500", "141800.912500", "141801.915000", "141802.920000", "141803.922500", "141804.927500"],
      "ContentTime": ["141315.468000", "141315.484000", "141315.484000", "141315.484000", "141315.484000", "141315.484000", "141315.484000", "141315.500000", "141315.500000", "141315.500000", "141315.500000", "141315.500000", "141315.500000", "141315.500000", "141315.515000", "141315.515000", "141315.515000", "141315.515000", "141315.515000", "141315.515000", "141315.515000", "141315.515000", "141315.531000", "141315.531000", "141315.531000", "141315.531000", "141315.531000", "141315.531000", "141315.531000", "141315.546000", "141315.546000", "141315.546000", "141315.546000", "141315.546000", "141315.546000", "141315.546000", "141315.562000", "141315.562000", "141315.562000", "141335.437000", "141335.437000", "141335.437000", "141335.453000", "141335.453000", "141335.453000", "141335.468000", "141335.468000", "141335.468000", "141335.468000", "141335.468000", "141335.468000", "141335.468000", "141335.468000", "141335.484000", "141335.484000", "141335.484000", "141335.484000", "141335.484000", "141335.484000", "141355.437000", "141355.437000", "141355.437000", "141355.437000", "141355.437000", "141355.453000", "141355.453000", "141355.453000", "141355.453000", "141355.453000", "141355.453000", "141355.453000", "141355.453000", "141355.468000", "141355.468000", "141355.468000", "141355.468000", "141355.468000", "141355.468000", "141355.468000", "141415.437000", "141415.437000", "141415.437000", "141415.437000", "141415.437000", "141415.453000", "141415.453000", "141415.453000", "141415.453000", "141415.453000", "141415.453000", "141415.453000", "141415.468000", "141415.468000", "141415.468000", "141415.468000", "141415.468000", "141415.468000", "141415.468000", "141415.484000", "141435.437000", "141435.437000", "141435.437000", "141435.437000", "141435.437000", "141435.453000", "141435.453000", "141435.453000", "141435.453000", "141435.468000", "141435.468000", "141435.468000", "141435.468000", "141435.468000", "141435.468000", "141435.484000", "141435.484000", "141435.484000", "141435.484000", "141435.484000", "141455.437000", "141455.437000", "141455.437000", "141455.437000", "141455.453000", "141455.453000", "141455.453000", "141455.453000", "141455.453000", "141455.453000", "141455.468000", "141455.468000", "141455.468000", "141455.468000", "141455.468000", "141455.468000", "141455.468000", "141455.484000", "141455.484000", "141455.484000", "141515.437000", "141515.437000", "141515.437000", "141515.437000", "141515.437000", "141515.453000", "141515.453000", "141515.453000", "141515.453000", "141515.453000", "141515.453000", "141515.453000", "141515.468000", "141515.468000", "141515.468000", "141515.468000", "141515.468000", "141515.468000", "141515.468000", "141515.468000", "141535.437000", "141535.437000", "141535.453000", "141535.453000", "141535.453000", "141535.453000", "141535.453000", "141535.468000", "141535.468000", "141535.468000", "141535.468000", "141535.468000", "141535.468000", "141535.468000", "141535.484000", "141535.484000", "141535.484000", "141535.484000", "141535.484000", "141535.484000", "141555.437000", "141555.437000", "141555.437000", "141555.437000", "141555.437000", "141555.453000", "141555.453000", "141555.453000", "141555.453000", "141555.453000", "141555.468000", "141555.468000", "141555.468000", "141555.468000", "141555.468000", "141555.468000", "141555.468000", "141555.468000", "141555.484000", "141555.484000", "141615.437000", "141615.437000", "141615.437000", "141615.453000", "141615.453000", "141615.453000", "141615.453000", "141615.453000", "141615.453000", "141615.468000", "141615.468000", "141615.468000", "141615.468000", "141615.468000", "141615.468000", "141615.468000", "141615.484000", "141615.484000", "141615.484000", "141615.484000", "141635.437000", "141635.437000", "141635.437000", "141635.437000", "141635.437000", "141635.453000", "141635.453000", "141635.453000", "141635.453000", "141635.453000", "141635.453000", "141635.453000", "141635.468000", "141635.468000", "141635.468000", "141635.468000", "141635.468000", "141635.468000", "141635.468000", "141635.468000", "141655.437000", "141655.437000", "141655.437000", "141655.437000", "141655.437000", "141655.453000", "141655.453000", "141655.453000", "141655.453000", "141655.453000", "141655.453000", "141655.453000", "141655.468000", "141655.468000", "141655.468000", "141655.468000", "141655.484000", "141655.484000", "141655.484000", "141655.484000", "141715.437000", "141715.437000", "141715.437000", "141715.437000", "141715.437000", "141715.453000", "141715.453000", "141715.453000", "141715.453000", "141715.453000", "141715.453000", "141715.453000", "141715.468000", "141715.468000", "141715.468000", "141715.468000", "141715.468000", "141715.468000", "141715.468000", "141715.484000", "141735.437000", "141735.437000", "141735.437000", "141735.453000", "141735.453000", "141735.453000", "141735.453000", "141735.453000", "141735.453000", "141735.453000", "141735.468000", "141735.468000", "141735.468000", "141735.468000", "141735.468000", "141735.468000", "141735.468000", "141735.484000", "141735.484000", "141735.484000", "141755.437000", "141755.437000", "141755.437000", "141755.437000", "141755.437000", "141755.453000", "141755.453000", "141755.453000", "141755.453000", "141755.453000", "141755.453000", "141755.453000", "141755.468000", "141755.468000", "141755.468000", "141755.468000", "141755.468000", "141755.468000", "141755.468000", "141755.468000", "141810.890000", "141810.906000", "141810.906000", "141810.906000", "141810.906000", "141810.906000", "141810.906000", "141810.906000", "141810.906000", "141810.921000", "141810.921000"],
      "InstanceCreationTime": ["141315.468000", "141315.484000", "141315.484000", "141315.484000", "141315.484000", "141315.484000", "141315.484000", "141315.500000", "141315.500000", "141315.500000", "141315.500000", "141315.500000", "141315.500000", "141315.500000", "141315.515000", "141315.515000", "141315.515000", "141315.515000", "141315.515000", "141315.515000", "141315.515000", "141315.515000", "141315.531000", "141315.531000", "141315.531000", "141315.531000", "141315.531000", "141315.531000", "141315.531000", "141315.546000", "141315.546000", "141315.546000", "141315.546000", "141315.546000", "141315.546000", "141315.546000", "141315.562000", "141315.562000", "141315.562000", "141335.437000", "141335.437000", "141335.437000", "141335.453000", "141335.453000", "141335.453000", "141335.468000", "141335.468000", "141335.468000", "141335.468000", "141335.468000", "141335.468000", "141335.468000", "141335.468000", "141335.484000", "141335.484000", "141335.484000", "141335.484000", "141335.484000", "141335.484000", "141355.437000", "141355.437000", "141355.437000", "141355.437000", "141355.437000", "141355.453000", "141355.453000", "141355.453000", "141355.453000", "141355.453000", "141355.453000", "141355.453000", "141355.453000", "141355.468000", "141355.468000", "141355.468000", "141355.468000", "141355.468000", "141355.468000", "141355.468000", "141415.437000", "141415.437000", "141415.437000", "141415.437000", "141415.437000", "141415.453000", "141415.453000", "141415.453000", "141415.453000", "141415.453000", "141415.453000", "141415.453000", "141415.468000", "141415.468000", "141415.468000", "141415.468000", "141415.468000", "141415.468000", "141415.468000", "141415.484000", "141435.437000", "141435.437000", "141435.437000", "141435.437000", "141435.437000", "141435.453000", "141435.453000", "141435.453000", "141435.453000", "141435.468000", "141435.468000", "141435.468000", "141435.468000", "141435.468000", "141435.468000", "141435.484000", "141435.484000", "141435.484000", "141435.484000", "141435.484000", "141455.437000", "141455.437000", "141455.437000", "141455.437000", "141455.453000", "141455.453000", "141455.453000", "141455.453000", "141455.453000", "141455.453000", "141455.468000", "141455.468000", "141455.468000", "141455.468000", "141455.468000", "141455.468000", "141455.468000", "141455.484000", "141455.484000", "141455.484000", "141515.437000", "141515.437000", "141515.437000", "141515.437000", "141515.437000", "141515.453000", "141515.453000", "141515.453000", "141515.453000", "141515.453000", "141515.453000", "141515.453000", "141515.468000", "141515.468000", "141515.468000", "141515.468000", "141515.468000", "141515.468000", "141515.468000", "141515.468000", "141535.437000", "141535.437000", "141535.453000", "141535.453000", "141535.453000", "141535.453000", "141535.453000", "141535.468000", "141535.468000", "141535.468000", "141535.468000", "141535.468000", "141535.468000", "141535.468000", "141535.484000", "141535.484000", "141535.484000", "141535.484000", "141535.484000", "141535.484000", "141555.437000", "141555.437000", "141555.437000", "141555.437000", "141555.437000", "141555.453000", "141555.453000", "141555.453000", "141555.453000", "141555.453000", "141555.468000", "141555.468000", "141555.468000", "141555.468000", "141555.468000", "141555.468000", "141555.468000", "141555.468000", "141555.484000", "141555.484000", "141615.437000", "141615.437000", "141615.437000", "141615.453000", "141615.453000", "141615.453000", "141615.453000", "141615.453000", "141615.453000", "141615.468000", "141615.468000", "141615.468000", "141615.468000", "141615.468000", "141615.468000", "141615.468000", "141615.484000", "141615.484000", "141615.484000", "141615.484000", "141635.437000", "141635.437000", "141635.437000", "141635.437000", "141635.437000", "141635.453000", "141635.453000", "141635.453000", "141635.453000", "141635.453000", "141635.453000", "141635.453000", "141635.468000", "141635.468000", "141635.468000", "141635.468000", "141635.468000", "141635.468000", "141635.468000", "141635.468000", "141655.437000", "141655.437000", "141655.437000", "141655.437000", "141655.437000", "141655.453000", "141655.453000", "141655.453000", "141655.453000", "141655.453000", "141655.453000", "141655.453000", "141655.468000", "141655.468000", "141655.468000", "141655.468000", "141655.484000", "141655.484000", "141655.484000", "141655.484000", "141715.437000", "141715.437000", "141715.437000", "141715.437000", "141715.437000", "141715.453000", "141715.453000", "141715.453000", "141715.453000", "141715.453000", "141715.453000", "141715.453000", "141715.468000", "141715.468000", "141715.468000", "141715.468000", "141715.468000", "141715.468000", "141715.468000", "141715.484000", "141735.437000", "141735.437000", "141735.437000", "141735.453000", "141735.453000", "141735.453000", "141735.453000", "141735.453000", "141735.453000", "141735.453000", "141735.468000", "141735.468000", "141735.468000", "141735.468000", "141735.468000", "141735.468000", "141735.468000", "141735.484000", "141735.484000", "141735.484000", "141755.437000", "141755.437000", "141755.437000", "141755.437000", "141755.437000", "141755.453000", "141755.453000", "141755.453000", "141755.453000", "141755.453000", "141755.453000", "141755.453000", "141755.468000", "141755.468000", "141755.468000", "141755.468000", "141755.468000", "141755.468000", "141755.468000", "141755.468000", "141810.890000", "141810.906000", "141810.906000", "141810.906000", "141810.906000", "141810.906000", "141810.906000", "141810.906000", "141810.906000", "141810.921000", "141810.921000"],
      "InstanceNumber": [1, 2, 3, 4, 5, 6, 7, 8, 9, 10, 11, 12, 13, 14, 15, 16, 17, 18, 19, 20, 21, 22, 23, 24, 25, 26, 27, 28, 29, 30, 31, 32, 33, 34, 35, 36, 37, 38, 39, 40, 41, 42, 43, 44, 45, 46, 47, 48, 49, 50, 51, 52, 53, 54, 55, 56, 57, 58, 59, 60, 61, 62, 63, 64, 65, 66, 67, 68, 69, 70, 71, 72, 73, 74, 75, 76, 77, 78, 79, 80, 81, 82, 83, 84, 85, 86, 87, 88, 89, 90, 91, 92, 93, 94, 95, 96, 97, 98, 99, 100, 101, 102, 103, 104, 105, 106, 107, 108, 109, 110, 111, 112, 113, 114, 115, 116, 117, 118, 119, 120, 121, 122, 123, 124, 125, 126, 127, 128, 129, 130, 131, 132, 133, 134, 135, 136, 137, 138, 139, 140, 141, 142, 143, 144, 145, 146, 147, 148, 149, 150, 151, 152, 153, 154, 155, 156, 157, 158, 159, 160, 161, 162, 163, 164, 165, 166, 167, 168, 169, 170, 171, 172, 173, 174, 175, 176, 177, 178, 179, 180, 181, 182, 183, 184, 185, 186, 187, 188, 189, 190, 191, 192, 193, 194, 195, 196, 197, 198, 199, 200, 201, 202, 203, 204, 205, 206, 207, 208, 209, 210, 211, 212, 213, 214, 215, 216, 217, 218, 219, 220, 221, 222, 223, 224, 225, 226, 227, 228, 229, 230, 231, 232, 233, 234, 235, 236, 237, 238, 239, 240, 241, 242, 243, 244, 245, 246, 247, 248, 249, 250, 251, 252, 253, 254, 255, 256, 257, 258, 259, 260, 261, 262, 263, 264, 265, 266, 267, 268, 269, 270, 271, 272, 273, 274, 275, 276, 277, 278, 279, 280, 281, 282, 283, 284, 285, 286, 287, 288, 289, 290, 291, 292, 293, 294, 295, 296, 297, 298, 299, 300, 301, 302, 303, 304, 305, 306, 307, 308, 309, 310, 311, 312, 313, 314, 315, 316, 317, 318, 319, 320, 321, 322, 323, 324, 325, 326, 327, 328, 329, 330],
      "LargestImagePixelValue": [2296, 2310, 2261, 2259, 2276, 2279, 2249, 2254, 2276, 2258, 2266, 2245, 2251, 2265, 2289, 2258, 2272, 2256, 2257, 2226, 2267, 2243, 2249, 2231, 2274, 2243, 2239, 2267, 2268, 2253, 2250, 2261, 2266, 2259, 2234, 2252, 2272, 2256, 2254, 2245, 2237, 2240, 2254, 2232, 2236, 2238, 2237, 2227, 2244, 2263, 2234, 2248, 2223, 2231, 2240, 2264, 2238, 2262, 2241, 2262, 2227, 2271, 2234, 2209, 2270, 2244, 2232, 2255, 2240, 2251, 2226, 2227, 2209, 2245, 2226, 2218, 2251, 2216, 2242, 2250, 2228, 2242, 2235, 2228, 2246, 2211, 2210, 2229, 2209, 2220, 2227, 2215, 2223, 2227, 2232, 2250, 2236, 2246, 2205, 2214, 2219, 2217, 2240, 2219, 2196, 2209, 2249, 2235, 2224, 2248, 2219, 2218, 2241, 2248, 2239, 2192, 2225, 2198, 2196, 2228, 2225, 2191, 2202, 2237, 2205, 2207, 2231, 2230, 2228, 2209, 2261, 2209, 2210, 2216, 2191, 2205, 2235, 2236, 2223, 2230, 2202, 2219, 2240, 2201, 2190, 2217, 2184, 2227, 2193, 2225, 2226, 2202, 2197, 2216, 2180, 2178, 2205, 2182, 2192, 2210, 2197, 2195, 2186, 2196, 2188, 2205, 2196, 2217, 2227, 2211, 2185, 2180, 2211, 2201, 2182, 2219, 2192, 2196, 2211, 2179, 2172, 2218, 2233, 2214, 2208, 2227, 2173, 2171, 2202, 2224, 2178, 2198, 2191, 2188, 2202, 2177, 2197, 2218, 2175, 2184, 2187, 2214, 2191, 2224, 2201, 2187, 2181, 2212, 2236, 2194, 2211, 2191, 2218, 2211, 2199, 2199, 2211, 2203, 2219, 2190, 2193, 2178, 2184, 2183, 2175, 2176, 2206, 2206, 2202, 2202, 2201, 2179, 2196, 2202, 2194, 2192, 2198, 2187, 2181, 2196, 2194, 2201, 2213, 2174, 2212, 2205, 2182, 2218, 2220, 2191, 2206, 2182, 2188, 2189, 2213, 2195, 2206, 2204, 2200, 2163, 2175, 2199, 2185, 2222, 2206, 2201, 2160, 2203, 2179, 2180, 2231, 2194, 2187, 2191, 2185, 2195, 2182, 2173, 2209, 2160, 2186, 2170, 2133, 2173, 2160, 2186, 2127, 2217, 2197, 2168, 2193, 2175, 2161, 2161, 2158, 2182, 2171, 2175, 2152, 2152, 2155, 2152, 2170, 2164, 2197, 2137, 2188, 2167, 2168, 2183, 2123, 2128, 2149, 2182, 2166, 2179, 2183, 2164, 2178, 2184, 2154, 2181, 2197, 2149, 2186, 2185, 2161, 2160, 2180, 2195],
      "WindowCenter": [465.0, 465.0, 463.0, 463.0, 463.0, 462.0, 462.0, 462.0, 462.0, 462.0, 464.0, 464.0, 464.0, 464.0, 464.0, 463.0, 463.0, 463.0, 462.0, 462.0, 463.0, 461.0, 461.0, 461.0, 461.0, 460.0, 462.0, 462.0, 462.0, 461.0, 461.0, 460.0, 460.0, 460.0, 461.0, 460.0, 460.0, 461.0, 461.0, 460.0, 460.0, 460.0, 460.0, 460.0, 461.0, 461.0, 463.0, 464.0, 463.0, 462.0, 461.0, 461.0, 460.0, 460.0, 461.0, 462.0, 461.0, 461.0, 461.0, 462.0, 462.0, 464.0, 464.0, 463.0, 464.0, 462.0, 462.0, 462.0, 462.0, 463.0, 463.0, 463.0, 462.0, 462.0, 460.0, 460.0, 460.0, 459.0, 460.0, 460.0, 461.0, 460.0, 461.0, 461.0, 462.0, 461.0, 461.0, 461.0, 462.0, 464.0, 464.0, 464.0, 463.0, 461.0, 462.0, 462.0, 462.0, 462.0, 461.0, 461.0, 461.0, 460.0, 459.0, 459.0, 459.0, 459.0, 461.0, 463.0, 464.0, 466.0, 465.0, 463.0, 463.0, 462.0, 462.0, 461.0, 461.0, 462.0, 462.0, 463.0, 462.0, 461.0, 460.0, 460.0, 459.0, 459.0, 461.0, 460.0, 461.0, 462.0, 463.0, 462.0, 462.0, 462.0, 462.0, 463.0, 464.0, 463.0, 462.0, 462.0, 460.0, 461.0, 460.0, 461.0, 462.0, 463.0, 463.0, 464.0, 463.0, 462.0, 462.0, 460.0, 460.0, 460.0, 459.0, 459.0, 460.0, 461.0, 463.0, 464.0, 463.0, 463.0, 462.0, 461.0, 462.0, 462.0, 462.0, 462.0, 462.0, 462.0, 460.0, 460.0, 461.0, 460.0, 461.0, 461.0, 461.0, 461.0, 461.0, 460.0, 460.0, 461.0, 462.0, 463.0, 464.0, 464.0, 463.0, 462.0, 462.0, 461.0, 461.0, 462.0, 462.0, 462.0, 462.0, 461.0, 460.0, 461.0, 460.0, 460.0, 462.0, 463.0, 464.0, 464.0, 464.0, 462.0, 462.0, 462.0, 461.0, 461.0, 461.0, 461.0, 461.0, 461.0, 460.0, 459.0, 460.0, 460.0, 460.0, 461.0, 460.0, 460.0, 460.0, 460.0, 459.0, 459.0, 460.0, 460.0, 462.0, 462.0, 462.0, 461.0, 462.0, 460.0, 460.0, 461.0, 461.0, 461.0, 462.0, 462.0, 462.0, 462.0, 462.0, 461.0, 462.0, 462.0, 462.0, 462.0, 462.0, 462.0, 462.0, 463.0, 462.0, 461.0, 461.0, 460.0, 459.0, 459.0, 459.0, 459.0, 460.0, 462.0, 462.0, 463.0, 464.0, 463.0, 462.0, 463.0, 462.0, 461.0, 462.0, 461.0, 461.0, 461.0, 462.0, 462.0, 461.0, 462.0, 462.0, 459.0, 460.0, 460.0, 461.0, 463.0, 463.0, 462.0, 461.0, 462.0, 460.0, 459.0, 460.0, 460.0, 462.0, 462.0, 461.0, 461.0, 460.0, 460.0, 460.0, 459.0, 459.0, 459.0, 459.0, 458.0, 460.0, 459.0, 459.0, 460.0, 460.0, 460.0, 460.0, 461.0, 461.0, 460.0, 460.0, 460.0, 460.0, 460.0, 463.0, 464.0, 463.0, 463.0, 463.0, 461.0, 460.0, 460.0, 460.0, 459.0, 459.0, 459.0],
