{
  "AcquisitionMatrixPE": 104,
  "AcquisitionNumber": 1,
  "AcquisitionTime": "14:06:13.987500",
  "BandwidthPerPixelPhaseEncode": 43.054,
  "BaseResolution": 104,
  "CoilString": "C:E1_2",
  "ConversionSoftware": "dcm2niix",
  "ConversionSoftwareVersion": "v1.0.20191031",
  "DerivedVendorReportedEchoSpacing": 0.000669999,
  "DeviceSerialNumber": "18932",
  "DwellTime": 2.8e-06,
  "EchoTime": 0.02,
  "EffectiveEchoSpacing": 0.000223333,
  "FlipAngle": 30,
  "ImageComments": "Unaliased_MB2_PE2",
  "ImageOrientationPatientDICOM": [1, 0, 0, 0, 0.999048, -0.0436194],
  "ImageType": [
    "ORIGINAL",
    "PRIMARY",
    "M",
    "MB",
    "ND",
    "MOSAIC"
],
  "ImagingFrequency": 297.229,
  "InPlanePhaseEncodingDirectionDICOM": "COL",
  "InstitutionAddress": "Richmond_Street_North_1151_London_409EF2_Ontario_CA_N6A_5B7",
  "InstitutionName": "Robarts_Reserch_Institute",
  "InstitutionalDepartmentName": "Department",
  "MRAcquisitionType": "2D",
  "MagneticFieldStrength": 6.98,
  "Manufacturer": "Siemens",
  "ManufacturersModelName": "Investigational_Device_7T",
  "Modality": "MR",
  "MultibandAccelerationFactor": 2,
  "ParallelReductionFactorInPlane": 3,
  "PartialFourier": 0.875,
  "PatientPosition": "HFS",
  "PercentPhaseFOV": 100,
  "PhaseEncodingDirection": "j-",
  "PhaseEncodingSteps": 91,
  "PhaseResolution": 1,
  "PixelBandwidth": 1717,
  "ProcedureStepDescription": "Diedrichsen_SeqRep4",
  "ProtocolName": "mbep2d_bold_mb2_p3_AP_2iso",
  "PulseSequenceDetails": "%CustomerSeq%_cmrr_mbep2d_bold",
  "ReceiveCoilName": "CFMM_8Tx32Rx",
  "ReconMatrixPE": 104,
  "RefLinesPE": 36,
  "RepetitionTime": 1,
  "ScanOptions": "PFP_FS",
  "ScanningSequence": "EP",
  "SequenceName": "epfid2d1_104",
  "SequenceVariant": "SK_SS",
  "SeriesDescription": "mbep2d_bold_mb2_p3_AP_2iso",
  "SeriesNumber": 18,
  "ShimSetting": [30, 2004, 104, 1434, 84, 146, 137, -93],
  "SliceThickness": 2,
  "SliceTiming": [0, 0.23, 0.4575, 0.685, 0.9125, 0.1375, 0.365, 0.595, 0.8225, 0.0475, 0.275, 0.5025, 0.73, 0.96, 0.1825, 0.4125, 0.64, 0.8675, 0.0925, 0.32, 0.5475, 0.7775, 0, 0.23, 0.4575, 0.685, 0.9125, 0.1375, 0.365, 0.595, 0.8225, 0.0475, 0.275, 0.5025, 0.73, 0.96, 0.1825, 0.4125, 0.64, 0.8675, 0.0925, 0.32, 0.5475, 0.7775],
  "SoftwareVersions": "syngo_MR_B17",
  "SpacingBetweenSlices": 2,
  "StationName": "MASTER",
  "TaskName": "dsp",
  "TotalReadoutTime": 0.0230033,
  "TxRefAmp": 120,
  "dcmmeta_affine": [
    [-2.0, 0.0, 0.0, 108.35835266113281],
    [0.0, 1.9980964660644531, -0.08723877370357513, -102.20863342285156],
    [0.0, 0.08723877370357513, 1.9980963468551636, -18.40200424194336],
    [0.0, 0.0, 0.0, 1.0]
],
  "dcmmeta_reorient_transform": [
    [0.0, -1.0, 0.0, 103.0],
    [1.0, 0.0, 0.0, 0.0],
    [0.0, 0.0, 1.0, 0.0],
    [0.0, 0.0, 0.0, 1.0]
],
  "dcmmeta_shape": [104, 104, 44, 330],
  "dcmmeta_slice_dim": 2,
  "dcmmeta_version": 0.6,
  "global": {
    "const": {
      "AcquisitionMatrix": [104, 0, 0, 104],
      "AngioFlag": "N",
      "BitsAllocated": 16,
      "BitsStored": 12,
      "Columns": 728,
      "EchoNumbers": 1,
      "EchoTime": 20.0,
      "EchoTrainLength": 1,
      "FlipAngle": 30.0,
      "HighBit": 11,
      "ImageOrientationPatient": [1.0, 0.0, 0.0, 0.0, 0.99904822159351, -0.0436193870985],
      "ImagePositionPatient": [-732.35835361481, -727.0013941103, 17.802086354127],
      "ImageType": [
        "ORIGINAL",
        "PRIMARY",
        "M",
        "MB",
        "ND",
        "MOSAIC"
],
      "ImagedNucleus": "1H",
      "ImagingFrequency": 297.228784,
      "InPlanePhaseEncodingDirection": "COL",
      "MRAcquisitionType": "2D",
      "MagneticFieldStrength": 6.98,
      "Manufacturer": "SIEMENS",
      "ManufacturerModelName": "Investigational_Device_7T",
      "Modality": "MR",
      "NumberOfAverages": 1.0,
      "NumberOfPhaseEncodingSteps": 91,
      "PercentPhaseFieldOfView": 100.0,
      "PercentSampling": 100.0,
      "PerformedProcedureStepStartTime": "132553.421000",
      "PhotometricInterpretation": "MONOCHROME2",
      "PixelBandwidth": 1717.0,
      "PixelRepresentation": 0,
      "PixelSpacing": [2.0, 2.0],
      "ProtocolName": "mbep2d_bold_mb2_p3_AP 2iso",
      "RepetitionTime": 1000.0,
      "Rows": 728,
      "SAR": 0.0,
      "SamplesPerPixel": 1,
      "ScanOptions": [
        "PFP",
        "FS"
],
      "ScanningSequence": "EP",
      "SequenceName": "epfid2d1_104",
      "SequenceVariant": [
        "SK",
        "SS"
],
      "SeriesDescription": "mbep2d_bold_mb2_p3_AP 2iso",
      "SeriesNumber": 18,
      "SeriesTime": "140638.656000",
      "SliceLocation": -13.926212518134,
      "SliceThickness": 2.0,
      "SmallestImagePixelValue": 0,
      "SoftwareVersions": "syngo MR B17",
      "SpacingBetweenSlices": 1.9999999344314,
      "SpecificCharacterSet": "ISO_IR 100",
      "StudyID": "1",
      "StudyTime": "132553.359000",
      "TransmitCoilName": "CFMM_8Tx32Rx",
      "VariableFlipAngleFlag": "N",
      "WindowCenterWidthExplanation": "Algo1",
      "dBdt": 0.0},
    "slices": {}
  },
  "time": {
    "samples": {
      "AcquisitionNumber": [1, 2, 3, 4, 5, 6, 7, 8, 9, 10, 11, 12, 13, 14, 15, 16, 17, 18, 19, 20, 21, 22, 23, 24, 25, 26, 27, 28, 29, 30, 31, 32, 33, 34, 35, 36, 37, 38, 39, 40, 41, 42, 43, 44, 45, 46, 47, 48, 49, 50, 51, 52, 53, 54, 55, 56, 57, 58, 59, 60, 61, 62, 63, 64, 65, 66, 67, 68, 69, 70, 71, 72, 73, 74, 75, 76, 77, 78, 79, 80, 81, 82, 83, 84, 85, 86, 87, 88, 89, 90, 91, 92, 93, 94, 95, 96, 97, 98, 99, 100, 101, 102, 103, 104, 105, 106, 107, 108, 109, 110, 111, 112, 113, 114, 115, 116, 117, 118, 119, 120, 121, 122, 123, 124, 125, 126, 127, 128, 129, 130, 131, 132, 133, 134, 135, 136, 137, 138, 139, 140, 141, 142, 143, 144, 145, 146, 147, 148, 149, 150, 151, 152, 153, 154, 155, 156, 157, 158, 159, 160, 161, 162, 163, 164, 165, 166, 167, 168, 169, 170, 171, 172, 173, 174, 175, 176, 177, 178, 179, 180, 181, 182, 183, 184, 185, 186, 187, 188, 189, 190, 191, 192, 193, 194, 195, 196, 197, 198, 199, 200, 201, 202, 203, 204, 205, 206, 207, 208, 209, 210, 211, 212, 213, 214, 215, 216, 217, 218, 219, 220, 221, 222, 223, 224, 225, 226, 227, 228, 229, 230, 231, 232, 233, 234, 235, 236, 237, 238, 239, 240, 241, 242, 243, 244, 245, 246, 247, 248, 249, 250, 251, 252, 253, 254, 255, 256, 257, 258, 259, 260, 261, 262, 263, 264, 265, 266, 267, 268, 269, 270, 271, 272, 273, 274, 275, 276, 277, 278, 279, 280, 281, 282, 283, 284, 285, 286, 287, 288, 289, 290, 291, 292, 293, 294, 295, 296, 297, 298, 299, 300, 301, 302, 303, 304, 305, 306, 307, 308, 309, 310, 311, 312, 313, 314, 315, 316, 317, 318, 319, 320, 321, 322, 323, 324, 325, 326, 327, 328, 329, 330],
      "AcquisitionTime": ["140613.987500", "140614.992500", "140615.997500", "140617.000000", "140618.005000", "140619.007500", "140620.012500", "140621.017500", "140622.020000", "140623.025000", "140624.027500", "140625.032500", "140626.037500", "140627.040000", "140628.045000", "140629.050000", "140630.052500", "140631.057500", "140632.060000", "140633.065000", "140634.070000", "140635.072500", "140636.077500", "140637.080000", "140638.085000", "140639.090000", "140640.092500", "140641.097500", "140642.100000", "140643.105000", "140644.110000", "140645.112500", "140646.117500", "140647.120000", "140648.125000", "140649.130000", "140650.132500", "140651.137500", "140652.140000", "140653.145000", "140654.150000", "140655.152500", "140656.157500", "140657.160000", "140658.165000", "140659.170000", "140700.172500", "140701.177500", "140702.182500", "140703.185000", "140704.190000", "140705.192500", "140706.197500", "140707.202500", "140708.205000", "140709.210000", "140710.212500", "140711.217500", "140712.222500", "140713.225000", "140714.230000", "140715.232500", "140716.237500", "140717.242500", "140718.245000", "140719.250000", "140720.252500", "140721.257500", "140722.262500", "140723.265000", "140724.270000", "140725.272500", "140726.277500", "140727.282500", "140728.285000", "140729.290000", "140730.295000", "140731.297500", "140732.302500", "140733.305000", "140734.310000", "140735.315000", "140736.317500", "140737.322500", "140738.325000", "140739.330000", "140740.335000", "140741.337500", "140742.342500", "140743.345000", "140744.350000", "140745.355000", "140746.357500", "140747.362500", "140748.365000", "140749.370000", "140750.375000", "140751.377500", "140752.382500", "140753.385000", "140754.390000", "140755.395000", "140756.397500", "140757.402500", "140758.405000", "140759.410000", "140800.415000", "140801.417500", "140802.422500", "140803.427500", "140804.430000", "140805.435000", "140806.437500", "140807.442500", "140808.447500", "140809.450000", "140810.455000", "140811.457500", "140812.462500", "140813.467500", "140814.470000", "140815.475000", "140816.477500", "140817.482500", "140818.487500", "140819.490000", "140820.495000", "140821.497500", "140822.502500", "140823.507500", "140824.510000", "140825.515000", "140826.517500", "140827.522500", "140828.527500", "140829.530000", "140830.535000", "140831.537500", "140832.542500", "140833.547500", "140834.550000", "140835.555000", "140836.560000", "140837.562500", "140838.567500", "140839.570000", "140840.575000", "140841.580000", "140842.582500", "140843.587500", "140844.590000", "140845.595000", "140846.600000", "140847.602500", "140848.607500", "140849.610000", "140850.615000", "140851.620000", "140852.622500", "140853.627500", "140854.630000", "140855.635000", "140856.640000", "140857.642500", "140858.647500", "140859.650000", "140900.655000", "140901.660000", "140902.662500", "140903.667500", "140904.672500", "140905.675000", "140906.680000", "140907.682500", "140908.687500", "140909.692500", "140910.695000", "140911.700000", "140912.702500", "140913.707500", "140914.712500", "140915.715000", "140916.720000", "140917.722500", "140918.727500", "140919.732500", "140920.735000", "140921.740000", "140922.742500", "140923.747500", "140924.752500", "140925.755000", "140926.760000", "140927.762500", "140928.767500", "140929.772500", "140930.775000", "140931.780000", "140932.782500", "140933.787500", "140934.792500", "140935.795000", "140936.800000", "140937.805000", "140938.807500", "140939.812500", "140940.815000", "140941.820000", "140942.825000", "140943.827500", "140944.832500", "140945.835000", "140946.840000", "140947.845000", "140948.847500", "140949.852500", "140950.855000", "140951.860000", "140952.865000", "140953.867500", "140954.872500", "140955.875000", "140956.880000", "140957.885000", "140958.887500", "140959.892500", "141000.895000", "141001.900000", "141002.905000", "141003.907500", "141004.912500", "141005.917500", "141006.920000", "141007.925000", "141008.927500", "141009.932500", "141010.937500", "141011.940000", "141012.945000", "141013.947500", "141014.952500", "141015.957500", "141016.960000", "141017.965000", "141018.967500", "141019.972500", "141020.977500", "141021.980000", "141022.985000", "141023.987500", "141024.992500", "141025.997500", "141027.000000", "141028.005000", "141029.007500", "141030.012500", "141031.017500", "141032.020000", "141033.025000", "141034.027500", "141035.032500", "141036.037500", "141037.040000", "141038.045000", "141039.050000", "141040.052500", "141041.057500", "141042.060000", "141043.065000", "141044.070000", "141045.072500", "141046.077500", "141047.080000", "141048.085000", "141049.090000", "141050.092500", "141051.097500", "141052.100000", "141053.105000", "141054.110000", "141055.112500", "141056.117500", "141057.120000", "141058.125000", "141059.130000", "141100.132500", "141101.137500", "141102.140000", "141103.145000", "141104.150000", "141105.152500", "141106.157500", "141107.160000", "141108.165000", "141109.170000", "141110.172500", "141111.177500", "141112.182500", "141113.185000", "141114.190000", "141115.192500", "141116.197500", "141117.202500", "141118.205000", "141119.210000", "141120.212500", "141121.217500", "141122.222500", "141123.225000", "141124.230000", "141125.232500", "141126.237500", "141127.242500", "141128.245000", "141129.250000", "141130.252500", "141131.257500", "141132.262500", "141133.265000", "141134.270000", "141135.272500", "141136.277500", "141137.282500", "141138.285000", "141139.290000", "141140.295000", "141141.297500", "141142.302500", "141143.305000", "141144.310000"],
      "ContentTime": ["140638.656000", "140638.656000", "140638.656000", "140638.656000", "140638.671000", "140638.671000", "140638.671000", "140638.671000", "140638.671000", "140638.671000", "140638.671000", "140638.687000", "140638.687000", "140638.687000", "140638.687000", "140638.687000", "140638.687000", "140638.687000", "140638.687000", "140638.703000", "140638.703000", "140638.703000", "140638.703000", "140658.625000", "140658.625000", "140658.625000", "140658.625000", "140658.625000", "140658.640000", "140658.640000", "140658.640000", "140658.640000", "140658.640000", "140658.640000", "140658.640000", "140658.640000", "140658.656000", "140658.656000", "140658.656000", "140658.656000", "140658.656000", "140658.656000", "140658.656000", "140718.625000", "140718.625000", "140718.640000", "140718.640000", "140718.640000", "140718.640000", "140718.640000", "140718.640000", "140718.640000", "140718.656000", "140718.656000", "140718.671000", "140718.671000", "140718.671000", "140718.671000", "140718.671000", "140718.671000", "140718.671000", "140718.687000", "140718.687000", "140738.625000", "140738.625000", "140738.625000", "140738.625000", "140738.640000", "140738.640000", "140738.640000", "140738.640000", "140738.640000", "140738.640000", "140738.640000", "140738.640000", "140738.656000", "140738.656000", "140738.656000", "140738.656000", "140738.656000", "140738.656000", "140738.656000", "140738.656000", "140758.625000", "140758.625000", "140758.625000", "140758.625000", "140758.625000", "140758.640000", "140758.640000", "140758.640000", "140758.640000", "140758.640000", "140758.640000", "140758.640000", "140758.640000", "140758.656000", "140758.656000", "140758.656000", "140758.671000", "140758.671000", "140758.671000", "140758.671000", "140818.625000", "140818.625000", "140818.640000", "140818.640000", "140818.640000", "140818.640000", "140818.656000", "140818.656000", "140818.656000", "140818.656000", "140818.656000", "140818.656000", "140818.656000", "140818.671000", "140818.671000", "140818.671000", "140818.671000", "140818.671000", "140818.671000", "140818.671000", "140838.625000", "140838.625000", "140838.640000", "140838.640000", "140838.640000", "140838.640000", "140838.640000", "140838.656000", "140838.656000", "140838.656000", "140838.656000", "140838.656000", "140838.656000", "140838.656000", "140838.656000", "140838.671000", "140838.671000", "140838.671000", "140838.671000", "140838.671000", "140858.625000", "140858.625000", "140858.625000", "140858.625000", "140858.625000", "140858.640000", "140858.640000", "140858.640000", "140858.640000", "140858.656000", "140858.656000", "140858.656000", "140858.656000", "140858.656000", "140858.656000", "140858.656000", "140858.656000", "140858.671000", "140858.671000", "140858.671000", "140918.625000", "140918.625000", "140918.625000", "140918.625000", "140918.625000", "140918.640000", "140918.640000", "140918.640000", "140918.640000", "140918.640000", "140918.640000", "140918.640000", "140918.640000", "140918.656000", "140918.656000", "140918.656000", "140918.656000", "140918.656000", "140918.656000", "140918.656000", "140938.625000", "140938.625000", "140938.640000", "140938.640000", "140938.640000", "140938.640000", "140938.640000", "140938.656000", "140938.656000", "140938.656000", "140938.656000", "140938.656000", "140938.656000", "140938.656000", "140938.671000", "140938.671000", "140938.671000", "140938.671000", "140938.671000", "140938.671000", "140958.625000", "140958.625000", "140958.625000", "140958.625000", "140958.625000", "140958.640000", "140958.640000", "140958.640000", "140958.640000", "140958.640000", "140958.640000", "140958.656000", "140958.656000", "140958.656000", "140958.656000", "140958.656000", "140958.656000", "140958.656000", "140958.671000", "140958.671000", "141018.625000", "141018.625000", "141018.625000", "141018.625000", "141018.640000", "141018.640000", "141018.640000", "141018.640000", "141018.640000", "141018.656000", "141018.656000", "141018.656000", "141018.656000", "141018.656000", "141018.671000", "141018.671000", "141018.671000", "141018.671000", "141018.671000", "141018.671000", "141038.625000", "141038.625000", "141038.625000", "141038.625000", "141038.625000", "141038.640000", "141038.640000", "141038.640000", "141038.640000", "141038.640000", "141038.640000", "141038.640000", "141038.656000", "141038.656000", "141038.656000", "141038.656000", "141038.656000", "141038.656000", "141038.656000", "141038.656000", "141058.625000", "141058.625000", "141058.625000", "141058.625000", "141058.640000", "141058.640000", "141058.640000", "141058.640000", "141058.656000", "141058.656000", "141058.656000", "141058.656000", "141058.656000", "141058.656000", "141058.656000", "141058.656000", "141058.671000", "141058.671000", "141058.671000", "141058.671000", "141118.625000", "141118.625000", "141118.625000", "141118.625000", "141118.625000", "141118.640000", "141118.640000", "141118.640000", "141118.640000", "141118.640000", "141118.640000", "141118.640000", "141118.640000", "141118.656000", "141118.656000", "141118.656000", "141118.656000", "141118.656000", "141118.656000", "141118.656000", "141138.625000", "141138.625000", "141138.625000", "141138.625000", "141138.625000", "141138.640000", "141138.640000", "141138.640000", "141138.640000", "141138.640000", "141138.640000", "141138.640000", "141138.640000", "141138.656000", "141138.656000", "141138.656000", "141138.656000", "141138.656000", "141138.656000", "141138.656000", "141149.843000", "141149.843000", "141149.843000", "141149.859000", "141149.859000", "141149.859000", "141149.859000"],
      "InstanceCreationTime": ["140638.656000", "140638.656000", "140638.656000", "140638.656000", "140638.671000", "140638.671000", "140638.671000", "140638.671000", "140638.671000", "140638.671000", "140638.671000", "140638.687000", "140638.687000", "140638.687000", "140638.687000", "140638.687000", "140638.687000", "140638.687000", "140638.687000", "140638.703000", "140638.703000", "140638.703000", "140638.703000", "140658.625000", "140658.625000", "140658.625000", "140658.625000", "140658.625000", "140658.640000", "140658.640000", "140658.640000", "140658.640000", "140658.640000", "140658.640000", "140658.640000", "140658.640000", "140658.656000", "140658.656000", "140658.656000", "140658.656000", "140658.656000", "140658.656000", "140658.656000", "140718.625000", "140718.625000", "140718.640000", "140718.640000", "140718.640000", "140718.640000", "140718.640000", "140718.640000", "140718.640000", "140718.656000", "140718.656000", "140718.671000", "140718.671000", "140718.671000", "140718.671000", "140718.671000", "140718.671000", "140718.671000", "140718.687000", "140718.687000", "140738.625000", "140738.625000", "140738.625000", "140738.625000", "140738.640000", "140738.640000", "140738.640000", "140738.640000", "140738.640000", "140738.640000", "140738.640000", "140738.640000", "140738.656000", "140738.656000", "140738.656000", "140738.656000", "140738.656000", "140738.656000", "140738.656000", "140738.656000", "140758.625000", "140758.625000", "140758.625000", "140758.625000", "140758.625000", "140758.640000", "140758.640000", "140758.640000", "140758.640000", "140758.640000", "140758.640000", "140758.640000", "140758.640000", "140758.656000", "140758.656000", "140758.656000", "140758.671000", "140758.671000", "140758.671000", "140758.671000", "140818.625000", "140818.625000", "140818.640000", "140818.640000", "140818.640000", "140818.640000", "140818.656000", "140818.656000", "140818.656000", "140818.656000", "140818.656000", "140818.656000", "140818.656000", "140818.671000", "140818.671000", "140818.671000", "140818.671000", "140818.671000", "140818.671000", "140818.671000", "140838.625000", "140838.625000", "140838.640000", "140838.640000", "140838.640000", "140838.640000", "140838.640000", "140838.656000", "140838.656000", "140838.656000", "140838.656000", "140838.656000", "140838.656000", "140838.656000", "140838.656000", "140838.671000", "140838.671000", "140838.671000", "140838.671000", "140838.671000", "140858.625000", "140858.625000", "140858.625000", "140858.625000", "140858.625000", "140858.640000", "140858.640000", "140858.640000", "140858.640000", "140858.656000", "140858.656000", "140858.656000", "140858.656000", "140858.656000", "140858.656000", "140858.656000", "140858.656000", "140858.671000", "140858.671000", "140858.671000", "140918.625000", "140918.625000", "140918.625000", "140918.625000", "140918.625000", "140918.640000", "140918.640000", "140918.640000", "140918.640000", "140918.640000", "140918.640000", "140918.640000", "140918.640000", "140918.656000", "140918.656000", "140918.656000", "140918.656000", "140918.656000", "140918.656000", "140918.656000", "140938.625000", "140938.625000", "140938.640000", "140938.640000", "140938.640000", "140938.640000", "140938.640000", "140938.656000", "140938.656000", "140938.656000", "140938.656000", "140938.656000", "140938.656000", "140938.656000", "140938.671000", "140938.671000", "140938.671000", "140938.671000", "140938.671000", "140938.671000", "140958.625000", "140958.625000", "140958.625000", "140958.625000", "140958.625000", "140958.640000", "140958.640000", "140958.640000", "140958.640000", "140958.640000", "140958.640000", "140958.656000", "140958.656000", "140958.656000", "140958.656000", "140958.656000", "140958.656000", "140958.656000", "140958.671000", "140958.671000", "141018.625000", "141018.625000", "141018.625000", "141018.625000", "141018.640000", "141018.640000", "141018.640000", "141018.640000", "141018.640000", "141018.656000", "141018.656000", "141018.656000", "141018.656000", "141018.656000", "141018.671000", "141018.671000", "141018.671000", "141018.671000", "141018.671000", "141018.671000", "141038.625000", "141038.625000", "141038.625000", "141038.625000", "141038.625000", "141038.640000", "141038.640000", "141038.640000", "141038.640000", "141038.640000", "141038.640000", "141038.640000", "141038.656000", "141038.656000", "141038.656000", "141038.656000", "141038.656000", "141038.656000", "141038.656000", "141038.656000", "141058.625000", "141058.625000", "141058.625000", "141058.625000", "141058.640000", "141058.640000", "141058.640000", "141058.640000", "141058.656000", "141058.656000", "141058.656000", "141058.656000", "141058.656000", "141058.656000", "141058.656000", "141058.656000", "141058.671000", "141058.671000", "141058.671000", "141058.671000", "141118.625000", "141118.625000", "141118.625000", "141118.625000", "141118.625000", "141118.640000", "141118.640000", "141118.640000", "141118.640000", "141118.640000", "141118.640000", "141118.640000", "141118.640000", "141118.656000", "141118.656000", "141118.656000", "141118.656000", "141118.656000", "141118.656000", "141118.656000", "141138.625000", "141138.625000", "141138.625000", "141138.625000", "141138.625000", "141138.640000", "141138.640000", "141138.640000", "141138.640000", "141138.640000", "141138.640000", "141138.640000", "141138.640000", "141138.656000", "141138.656000", "141138.656000", "141138.656000", "141138.656000", "141138.656000", "141138.656000", "141149.843000", "141149.843000", "141149.843000", "141149.859000", "141149.859000", "141149.859000", "141149.859000"],
      "InstanceNumber": [1, 2, 3, 4, 5, 6, 7, 8, 9, 10, 11, 12, 13, 14, 15, 16, 17, 18, 19, 20, 21, 22, 23, 24, 25, 26, 27, 28, 29, 30, 31, 32, 33, 34, 35, 36, 37, 38, 39, 40, 41, 42, 43, 44, 45, 46, 47, 48, 49, 50, 51, 52, 53, 54, 55, 56, 57, 58, 59, 60, 61, 62, 63, 64, 65, 66, 67, 68, 69, 70, 71, 72, 73, 74, 75, 76, 77, 78, 79, 80, 81, 82, 83, 84, 85, 86, 87, 88, 89, 90, 91, 92, 93, 94, 95, 96, 97, 98, 99, 100, 101, 102, 103, 104, 105, 106, 107, 108, 109, 110, 111, 112, 113, 114, 115, 116, 117, 118, 119, 120, 121, 122, 123, 124, 125, 126, 127, 128, 129, 130, 131, 132, 133, 134, 135, 136, 137, 138, 139, 140, 141, 142, 143, 144, 145, 146, 147, 148, 149, 150, 151, 152, 153, 154, 155, 156, 157, 158, 159, 160, 161, 162, 163, 164, 165, 166, 167, 168, 169, 170, 171, 172, 173, 174, 175, 176, 177, 178, 179, 180, 181, 182, 183, 184, 185, 186, 187, 188, 189, 190, 191, 192, 193, 194, 195, 196, 197, 198, 199, 200, 201, 202, 203, 204, 205, 206, 207, 208, 209, 210, 211, 212, 213, 214, 215, 216, 217, 218, 219, 220, 221, 222, 223, 224, 225, 226, 227, 228, 229, 230, 231, 232, 233, 234, 235, 236, 237, 238, 239, 240, 241, 242, 243, 244, 245, 246, 247, 248, 249, 250, 251, 252, 253, 254, 255, 256, 257, 258, 259, 260, 261, 262, 263, 264, 265, 266, 267, 268, 269, 270, 271, 272, 273, 274, 275, 276, 277, 278, 279, 280, 281, 282, 283, 284, 285, 286, 287, 288, 289, 290, 291, 292, 293, 294, 295, 296, 297, 298, 299, 300, 301, 302, 303, 304, 305, 306, 307, 308, 309, 310, 311, 312, 313, 314, 315, 316, 317, 318, 319, 320, 321, 322, 323, 324, 325, 326, 327, 328, 329, 330],
      "LargestImagePixelValue": [2245, 2220, 2212, 2214, 2185, 2195, 2186, 2177, 2175, 2179, 2115, 2161, 2183, 2163, 2148, 2157, 2168, 2160, 2155, 2166, 2141, 2135, 2155, 2150, 2177, 2156, 2147, 2155, 2166, 2147, 2167, 2170, 2141, 2146, 2201, 2139, 2143, 2138, 2134, 2137, 2123, 2139, 2134, 2166, 2152, 2153, 2149, 2159, 2146, 2163, 2129, 2136, 2183, 2172, 2195, 2126, 2139, 2152, 2155, 2160, 2163, 2120, 2165, 2129, 2176, 2157, 2136, 2111, 2160, 2132, 2132, 2115, 2105, 2139, 2125, 2150, 2106, 2123, 2170, 2174, 2139, 2134, 2131, 2164, 2097, 2160, 2130, 2135, 2193, 2168, 2150, 2157, 2157, 2158, 2145, 2157, 2180, 2150, 2169, 2160, 2118, 2161, 2159, 2180, 2145, 2147, 2126, 2173, 2148, 2203, 2160, 2171, 2171, 2156, 2176, 2185, 2194, 2155, 2123, 2190, 2135, 2143, 2165, 2179, 2149, 2163, 2155, 2143, 2128, 2158, 2162, 2128, 2174, 2179, 2145, 2165, 2134, 2151, 2120, 2160, 2128, 2152, 2134, 2143, 2133, 2160, 2152, 2131, 2142, 2140, 2139, 2131, 2143, 2158, 2168, 2123, 2168, 2157, 2136, 2174, 2186, 2136, 2140, 2164, 2147, 2154, 2154, 2139, 2141, 2182, 2164, 2119, 2135, 2185, 2153, 2130, 2170, 2110, 2136, 2206, 2238, 2170, 2173, 2190, 2180, 2188, 2181, 2167, 2156, 2158, 2144, 2147, 2144, 2182, 2172, 2136, 2151, 2143, 2126, 2134, 2137, 2121, 2126, 2144, 2166, 2145, 2131, 2137, 2172, 2149, 2156, 2143, 2187, 2125, 2174, 2144, 2122, 2162, 2137, 2141, 2149, 2131, 2127, 2142, 2151, 2122, 2103, 2123, 2137, 2146, 2096, 2161, 2129, 2123, 2137, 2170, 2126, 2145, 2170, 2123, 2136, 2129, 2142, 2134, 2171, 2141, 2128, 2123, 2152, 2124, 2172, 2123, 2156, 2124, 2160, 2150, 2121, 2152, 2116, 2136, 2163, 2140, 2126, 2153, 2181, 2165, 2117, 2158, 2120, 2127, 2174, 2159, 2142, 2149, 2166, 2143, 2133, 2173, 2147, 2143, 2180, 2131, 2150, 2150, 2155, 2172, 2165, 2143, 2122, 2141, 2170, 2147, 2169, 2164, 2171, 2150, 2153, 2187, 2157, 2151, 2192, 2162, 2162, 2206, 2137, 2142, 2145, 2138, 2176, 2168, 2176, 2176, 2150, 2224, 2200, 2206, 2187, 2213, 2252, 2259, 2259, 2236, 2223, 2228, 2285, 2239, 2190, 2214, 2255, 2248],
      "WindowCenter": [464.0, 462.0, 463.0, 463.0, 463.0, 463.0, 462.0, 461.0, 459.0, 459.0, 459.0, 460.0, 461.0, 461.0, 461.0, 461.0, 461.0, 460.0, 460.0, 461.0, 462.0, 463.0, 463.0, 463.0, 461.0, 461.0, 460.0, 460.0, 460.0, 459.0, 460.0, 460.0, 460.0, 461.0, 462.0, 461.0, 461.0, 461.0, 460.0, 460.0, 461.0, 460.0, 460.0, 460.0, 461.0, 460.0, 460.0, 461.0, 461.0, 461.0, 461.0, 460.0, 459.0, 460.0, 461.0, 461.0, 462.0, 462.0, 462.0, 461.0, 461.0, 460.0, 459.0, 459.0, 460.0, 459.0, 459.0, 460.0, 460.0, 459.0, 460.0, 460.0, 460.0, 460.0, 461.0, 462.0, 461.0, 462.0, 462.0, 461.0, 461.0, 460.0, 459.0, 459.0, 459.0, 460.0, 460.0, 460.0, 461.0, 461.0, 461.0, 462.0, 461.0, 461.0, 460.0, 461.0, 460.0, 460.0, 462.0, 461.0, 461.0, 460.0, 460.0, 460.0, 460.0, 462.0, 461.0, 460.0, 460.0, 460.0, 459.0, 460.0, 460.0, 459.0, 459.0, 460.0, 460.0, 459.0, 460.0, 461.0, 460.0, 460.0, 459.0, 459.0, 459.0, 461.0, 461.0, 460.0, 461.0, 462.0, 461.0, 461.0, 462.0, 462.0, 462.0, 463.0, 461.0, 460.0, 460.0, 460.0, 459.0, 459.0, 460.0, 460.0, 462.0, 464.0, 464.0, 463.0, 463.0, 462.0, 461.0, 461.0, 461.0, 460.0, 460.0, 460.0, 461.0, 461.0, 460.0, 461.0, 460.0, 460.0, 460.0, 461.0, 461.0, 461.0, 462.0, 461.0, 461.0, 461.0, 461.0, 460.0, 461.0, 461.0, 460.0, 459.0, 460.0, 459.0, 459.0, 462.0, 462.0, 463.0, 463.0, 462.0, 461.0, 461.0, 461.0, 460.0, 459.0, 461.0, 461.0, 462.0, 464.0, 464.0, 462.0, 462.0, 461.0, 460.0, 459.0, 459.0, 460.0, 459.0, 459.0, 460.0, 460.0, 459.0, 460.0, 461.0, 461.0, 462.0, 462.0, 462.0, 462.0, 462.0, 462.0, 463.0, 464.0, 465.0, 464.0, 464.0, 463.0, 462.0, 461.0, 461.0, 461.0, 460.0, 460.0, 460.0, 461.0, 460.0, 460.0, 461.0, 459.0, 459.0, 460.0, 461.0, 460.0, 460.0, 461.0, 460.0, 461.0, 461.0, 462.0, 462.0, 463.0, 462.0, 461.0, 461.0, 461.0, 460.0, 461.0, 460.0, 462.0, 462.0, 461.0, 461.0, 460.0, 461.0, 459.0, 460.0, 460.0, 460.0, 461.0, 463.0, 465.0, 464.0, 464.0, 463.0, 462.0, 461.0, 462.0, 461.0, 461.0, 461.0, 461.0, 460.0, 460.0, 460.0, 459.0, 459.0, 460.0, 459.0, 459.0, 460.0, 461.0, 463.0, 464.0, 463.0, 462.0, 462.0, 461.0, 461.0, 462.0, 462.0, 461.0, 461.0, 460.0, 460.0, 460.0, 462.0, 462.0, 462.0, 461.0, 461.0, 460.0, 460.0, 459.0, 459.0, 460.0, 460.0, 461.0, 462.0, 465.0, 466.0, 465.0, 464.0, 464.0, 463.0, 464.0, 464.0, 464.0, 464.0, 462.0, 462.0, 463.0, 462.0, 461.0, 460.0, 461.0, 461.0],
