{
  "AcquisitionMatrixPE": 104,
  "AcquisitionNumber": 1,
  "AcquisitionTime": "14:42:0.530000",
  "BandwidthPerPixelPhaseEncode": 43.054,
  "BaseResolution": 104,
  "CoilString": "C:E1_2",
  "ConversionSoftware": "dcm2niix",
  "ConversionSoftwareVersion": "v1.0.20191031",
  "DerivedVendorReportedEchoSpacing": 0.000669999,
  "DeviceSerialNumber": "18932",
  "DwellTime": 2.8e-06,
  "EchoTime": 0.02,
  "EffectiveEchoSpacing": 0.000223333,
  "FlipAngle": 30,
  "ImageComments": "Unaliased_MB2_PE2",
  "ImageOrientationPatientDICOM": [1, 0, 0, 0, 0.999048, -0.0436194],
  "ImageType": [
    "ORIGINAL",
    "PRIMARY",
    "M",
    "MB",
    "ND",
    "MOSAIC"
],
  "ImagingFrequency": 297.229,
  "InPlanePhaseEncodingDirectionDICOM": "COL",
  "InstitutionAddress": "Richmond_Street_North_1151_London_409EF2_Ontario_CA_N6A_5B7",
  "InstitutionName": "Robarts_Reserch_Institute",
  "InstitutionalDepartmentName": "Department",
  "MRAcquisitionType": "2D",
  "MagneticFieldStrength": 6.98,
  "Manufacturer": "Siemens",
  "ManufacturersModelName": "Investigational_Device_7T",
  "Modality": "MR",
  "MultibandAccelerationFactor": 2,
  "ParallelReductionFactorInPlane": 3,
  "PartialFourier": 0.875,
  "PatientPosition": "HFS",
  "PercentPhaseFOV": 100,
  "PhaseEncodingDirection": "j-",
  "PhaseEncodingSteps": 91,
  "PhaseResolution": 1,
  "PixelBandwidth": 1717,
  "ProcedureStepDescription": "Diedrichsen_SeqRep4",
  "ProtocolName": "mbep2d_bold_mb2_p3_AP_2iso",
  "PulseSequenceDetails": "%CustomerSeq%_cmrr_mbep2d_bold",
  "ReceiveCoilName": "CFMM_8Tx32Rx",
  "ReconMatrixPE": 104,
  "RefLinesPE": 36,
  "RepetitionTime": 1,
  "ScanOptions": "PFP_FS",
  "ScanningSequence": "EP",
  "SequenceName": "epfid2d1_104",
  "SequenceVariant": "SK_SS",
  "SeriesDescription": "mbep2d_bold_mb2_p3_AP_2iso",
  "SeriesNumber": 31,
  "ShimSetting": [30, 2004, 104, 1434, 84, 146, 137, -93],
  "SliceThickness": 2,
  "SliceTiming": [0, 0.23, 0.4575, 0.685, 0.9125, 0.1375, 0.365, 0.595, 0.8225, 0.0475, 0.275, 0.5025, 0.73, 0.96, 0.1825, 0.4125, 0.64, 0.8675, 0.0925, 0.32, 0.5475, 0.7775, 0, 0.23, 0.4575, 0.685, 0.9125, 0.1375, 0.365, 0.595, 0.8225, 0.0475, 0.275, 0.5025, 0.73, 0.96, 0.1825, 0.4125, 0.64, 0.8675, 0.0925, 0.32, 0.5475, 0.7775],
  "SoftwareVersions": "syngo_MR_B17",
  "SpacingBetweenSlices": 2,
  "StationName": "MASTER",
  "TaskName": "dsp",
  "TotalReadoutTime": 0.0230033,
  "TxRefAmp": 120,
  "dcmmeta_affine": [
    [-2.0, 0.0, 0.0, 108.35835266113281],
    [0.0, 1.9980964660644531, -0.08723877370357513, -102.20863342285156],
    [0.0, 0.08723877370357513, 1.9980963468551636, -18.40200424194336],
    [0.0, 0.0, 0.0, 1.0]
],
  "dcmmeta_reorient_transform": [
    [0.0, -1.0, 0.0, 103.0],
    [1.0, 0.0, 0.0, 0.0],
    [0.0, 0.0, 1.0, 0.0],
    [0.0, 0.0, 0.0, 1.0]
],
  "dcmmeta_shape": [104, 104, 44, 330],
  "dcmmeta_slice_dim": 2,
  "dcmmeta_version": 0.6,
  "global": {
    "const": {
      "AcquisitionMatrix": [104, 0, 0, 104],
      "AngioFlag": "N",
      "BitsAllocated": 16,
      "BitsStored": 12,
      "Columns": 728,
      "EchoNumbers": 1,
      "EchoTime": 20.0,
      "EchoTrainLength": 1,
      "FlipAngle": 30.0,
      "HighBit": 11,
      "ImageOrientationPatient": [1.0, 0.0, 0.0, 0.0, 0.99904822159351, -0.0436193870985],
      "ImagePositionPatient": [-732.35835361481, -727.0013941103, 17.802086354127],
      "ImageType": [
        "ORIGINAL",
        "PRIMARY",
        "M",
        "MB",
        "ND",
        "MOSAIC"
],
      "ImagedNucleus": "1H",
      "ImagingFrequency": 297.228816,
      "InPlanePhaseEncodingDirection": "COL",
      "MRAcquisitionType": "2D",
      "MagneticFieldStrength": 6.98,
      "Manufacturer": "SIEMENS",
      "ManufacturerModelName": "Investigational_Device_7T",
      "Modality": "MR",
      "NumberOfAverages": 1.0,
      "NumberOfPhaseEncodingSteps": 91,
      "PercentPhaseFieldOfView": 100.0,
      "PercentSampling": 100.0,
      "PerformedProcedureStepStartTime": "132553.421000",
      "PhotometricInterpretation": "MONOCHROME2",
      "PixelBandwidth": 1717.0,
      "PixelRepresentation": 0,
      "PixelSpacing": [2.0, 2.0],
      "ProtocolName": "mbep2d_bold_mb2_p3_AP 2iso",
      "RepetitionTime": 1000.0,
      "Rows": 728,
      "SAR": 0.0,
      "SamplesPerPixel": 1,
      "ScanOptions": [
        "PFP",
        "FS"
],
      "ScanningSequence": "EP",
      "SequenceName": "epfid2d1_104",
      "SequenceVariant": [
        "SK",
        "SS"
],
      "SeriesDescription": "mbep2d_bold_mb2_p3_AP 2iso",
      "SeriesNumber": 31,
      "SeriesTime": "144231.531000",
      "SliceLocation": -13.926212518134,
      "SliceThickness": 2.0,
      "SmallestImagePixelValue": 0,
      "SoftwareVersions": "syngo MR B17",
      "SpacingBetweenSlices": 1.9999999344314,
      "SpecificCharacterSet": "ISO_IR 100",
      "StudyID": "1",
      "StudyTime": "132553.359000",
      "TransmitCoilName": "CFMM_8Tx32Rx",
      "VariableFlipAngleFlag": "N",
      "WindowCenterWidthExplanation": "Algo1",
      "dBdt": 0.0},
    "slices": {}
  },
  "time": {
    "samples": {
      "AcquisitionNumber": [1, 2, 3, 4, 5, 6, 7, 8, 9, 10, 11, 12, 13, 14, 15, 16, 17, 18, 19, 20, 21, 22, 23, 24, 25, 26, 27, 28, 29, 30, 31, 32, 33, 34, 35, 36, 37, 38, 39, 40, 41, 42, 43, 44, 45, 46, 47, 48, 49, 50, 51, 52, 53, 54, 55, 56, 57, 58, 59, 60, 61, 62, 63, 64, 65, 66, 67, 68, 69, 70, 71, 72, 73, 74, 75, 76, 77, 78, 79, 80, 81, 82, 83, 84, 85, 86, 87, 88, 89, 90, 91, 92, 93, 94, 95, 96, 97, 98, 99, 100, 101, 102, 103, 104, 105, 106, 107, 108, 109, 110, 111, 112, 113, 114, 115, 116, 117, 118, 119, 120, 121, 122, 123, 124, 125, 126, 127, 128, 129, 130, 131, 132, 133, 134, 135, 136, 137, 138, 139, 140, 141, 142, 143, 144, 145, 146, 147, 148, 149, 150, 151, 152, 153, 154, 155, 156, 157, 158, 159, 160, 161, 162, 163, 164, 165, 166, 167, 168, 169, 170, 171, 172, 173, 174, 175, 176, 177, 178, 179, 180, 181, 182, 183, 184, 185, 186, 187, 188, 189, 190, 191, 192, 193, 194, 195, 196, 197, 198, 199, 200, 201, 202, 203, 204, 205, 206, 207, 208, 209, 210, 211, 212, 213, 214, 215, 216, 217, 218, 219, 220, 221, 222, 223, 224, 225, 226, 227, 228, 229, 230, 231, 232, 233, 234, 235, 236, 237, 238, 239, 240, 241, 242, 243, 244, 245, 246, 247, 248, 249, 250, 251, 252, 253, 254, 255, 256, 257, 258, 259, 260, 261, 262, 263, 264, 265, 266, 267, 268, 269, 270, 271, 272, 273, 274, 275, 276, 277, 278, 279, 280, 281, 282, 283, 284, 285, 286, 287, 288, 289, 290, 291, 292, 293, 294, 295, 296, 297, 298, 299, 300, 301, 302, 303, 304, 305, 306, 307, 308, 309, 310, 311, 312, 313, 314, 315, 316, 317, 318, 319, 320, 321, 322, 323, 324, 325, 326, 327, 328, 329, 330],
      "AcquisitionTime": ["144200.530000", "144201.535000", "144202.540000", "144203.542500", "144204.547500", "144205.550000", "144206.555000", "144207.560000", "144208.562500", "144209.567500", "144210.570000", "144211.575000", "144212.580000", "144213.582500", "144214.587500", "144215.592500", "144216.595000", "144217.600000", "144218.602500", "144219.607500", "144220.612500", "144221.615000", "144222.620000", "144223.622500", "144224.627500", "144225.632500", "144226.635000", "144227.640000", "144228.642500", "144229.647500", "144230.652500", "144231.655000", "144232.660000", "144233.662500", "144234.667500", "144235.672500", "144236.675000", "144237.680000", "144238.682500", "144239.687500", "144240.692500", "144241.695000", "144242.700000", "144243.705000", "144244.707500", "144245.712500", "144246.715000", "144247.720000", "144248.725000", "144249.727500", "144250.732500", "144251.735000", "144252.740000", "144253.745000", "144254.747500", "144255.752500", "144256.755000", "144257.760000", "144258.765000", "144259.767500", "144300.772500", "144301.775000", "144302.780000", "144303.785000", "144304.787500", "144305.792500", "144306.795000", "144307.800000", "144308.805000", "144309.807500", "144310.812500", "144311.815000", "144312.820000", "144313.825000", "144314.827500", "144315.832500", "144316.837500", "144317.840000", "144318.845000", "144319.847500", "144320.852500", "144321.857500", "144322.860000", "144323.865000", "144324.867500", "144325.872500", "144326.877500", "144327.880000", "144328.885000", "144329.887500", "144330.892500", "144331.897500", "144332.900000", "144333.905000", "144334.907500", "144335.912500", "144336.917500", "144337.920000", "144338.925000", "144339.927500", "144340.932500", "144341.937500", "144342.940000", "144343.945000", "144344.947500", "144345.952500", "144346.957500", "144347.960000", "144348.965000", "144349.970000", "144350.972500", "144351.977500", "144352.980000", "144353.985000", "144354.990000", "144355.992500", "144356.997500", "144358.000000", "144359.005000", "144400.010000", "144401.012500", "144402.017500", "144403.020000", "144404.025000", "144405.030000", "144406.032500", "144407.037500", "144408.040000", "144409.045000", "144410.050000", "144411.052500", "144412.057500", "144413.060000", "144414.065000", "144415.070000", "144416.072500", "144417.077500", "144418.082500", "144419.085000", "144420.090000", "144421.092500", "144422.097500", "144423.102500", "144424.105000", "144425.110000", "144426.112500", "144427.117500", "144428.122500", "144429.125000", "144430.130000", "144431.132500", "144432.137500", "144433.142500", "144434.145000", "144435.150000", "144436.152500", "144437.157500", "144438.162500", "144439.165000", "144440.170000", "144441.172500", "144442.177500", "144443.182500", "144444.185000", "144445.190000", "144446.192500", "144447.197500", "144448.202500", "144449.205000", "144450.210000", "144451.215000", "144452.217500", "144453.222500", "144454.225000", "144455.230000", "144456.235000", "144457.237500", "144458.242500", "144459.245000", "144500.250000", "144501.255000", "144502.257500", "144503.262500", "144504.265000", "144505.270000", "144506.275000", "144507.277500", "144508.282500", "144509.285000", "144510.290000", "144511.295000", "144512.297500", "144513.302500", "144514.305000", "144515.310000", "144516.315000", "144517.317500", "144518.322500", "144519.327500", "144520.330000", "144521.335000", "144522.337500", "144523.342500", "144524.347500", "144525.350000", "144526.355000", "144527.357500", "144528.362500", "144529.367500", "144530.370000", "144531.375000", "144532.377500", "144533.382500", "144534.387500", "144535.390000", "144536.395000", "144537.397500", "144538.402500", "144539.407500", "144540.410000", "144541.415000", "144542.417500", "144543.422500", "144544.427500", "144545.430000", "144546.435000", "144547.437500", "144548.442500", "144549.447500", "144550.450000", "144551.455000", "144552.460000", "144553.462500", "144554.467500", "144555.470000", "144556.475000", "144557.480000", "144558.482500", "144559.487500", "144600.490000", "144601.495000", "144602.500000", "144603.502500", "144604.507500", "144605.510000", "144606.515000", "144607.520000", "144608.522500", "144609.527500", "144610.530000", "144611.535000", "144612.540000", "144613.542500", "144614.547500", "144615.550000", "144616.555000", "144617.560000", "144618.562500", "144619.567500", "144620.570000", "144621.575000", "144622.580000", "144623.582500", "144624.587500", "144625.592500", "144626.595000", "144627.600000", "144628.602500", "144629.607500", "144630.612500", "144631.615000", "144632.620000", "144633.622500", "144634.627500", "144635.632500", "144636.635000", "144637.640000", "144638.642500", "144639.647500", "144640.652500", "144641.655000", "144642.660000", "144643.662500", "144644.667500", "144645.672500", "144646.675000", "144647.680000", "144648.682500", "144649.687500", "144650.692500", "144651.695000", "144652.700000", "144653.705000", "144654.707500", "144655.712500", "144656.715000", "144657.720000", "144658.725000", "144659.727500", "144700.732500", "144701.735000", "144702.740000", "144703.745000", "144704.747500", "144705.752500", "144706.755000", "144707.760000", "144708.765000", "144709.767500", "144710.772500", "144711.775000", "144712.780000", "144713.785000", "144714.787500", "144715.792500", "144716.795000", "144717.800000", "144718.805000", "144719.807500", "144720.812500", "144721.815000", "144722.820000", "144723.825000", "144724.827500", "144725.832500", "144726.837500", "144727.840000", "144728.845000", "144729.847500", "144730.852500"],
      "ContentTime": ["144231.531000", "144231.531000", "144231.531000", "144231.546000", "144231.546000", "144231.546000", "144231.546000", "144231.546000", "144231.546000", "144231.546000", "144231.562000", "144231.562000", "144231.562000", "144231.562000", "144231.562000", "144231.562000", "144231.562000", "144231.578000", "144231.578000", "144231.578000", "144231.578000", "144231.578000", "144231.578000", "144231.578000", "144231.578000", "144231.593000", "144231.593000", "144231.593000", "144231.593000", "144251.500000", "144251.500000", "144251.500000", "144251.500000", "144251.500000", "144251.515000", "144251.515000", "144251.515000", "144251.515000", "144251.515000", "144251.515000", "144251.531000", "144251.531000", "144251.531000", "144251.531000", "144251.531000", "144251.531000", "144251.531000", "144251.531000", "144251.546000", "144311.500000", "144311.500000", "144311.500000", "144311.515000", "144311.515000", "144311.531000", "144311.531000", "144311.531000", "144311.531000", "144311.531000", "144311.546000", "144311.546000", "144311.546000", "144311.546000", "144311.546000", "144311.546000", "144311.546000", "144311.562000", "144311.562000", "144311.562000", "144331.500000", "144331.500000", "144331.500000", "144331.500000", "144331.500000", "144331.515000", "144331.515000", "144331.515000", "144331.515000", "144331.515000", "144331.531000", "144331.531000", "144331.531000", "144331.531000", "144331.531000", "144331.531000", "144331.531000", "144331.546000", "144331.546000", "144331.546000", "144351.500000", "144351.500000", "144351.500000", "144351.500000", "144351.515000", "144351.515000", "144351.515000", "144351.515000", "144351.515000", "144351.515000", "144351.515000", "144351.531000", "144351.531000", "144351.531000", "144351.531000", "144351.531000", "144351.531000", "144351.531000", "144351.546000", "144351.546000", "144411.500000", "144411.500000", "144411.500000", "144411.500000", "144411.500000", "144411.515000", "144411.515000", "144411.515000", "144411.515000", "144411.531000", "144411.531000", "144411.531000", "144411.531000", "144411.531000", "144411.531000", "144411.531000", "144411.531000", "144411.546000", "144411.546000", "144411.546000", "144431.500000", "144431.500000", "144431.500000", "144431.500000", "144431.500000", "144431.515000", "144431.515000", "144431.515000", "144431.515000", "144431.515000", "144431.515000", "144431.515000", "144431.515000", "144431.531000", "144431.531000", "144431.531000", "144431.531000", "144431.531000", "144431.546000", "144431.546000", "144451.500000", "144451.500000", "144451.500000", "144451.500000", "144451.500000", "144451.515000", "144451.515000", "144451.515000", "144451.515000", "144451.515000", "144451.515000", "144451.515000", "144451.515000", "144451.531000", "144451.531000", "144451.531000", "144451.531000", "144451.531000", "144451.531000", "144451.531000", "144511.500000", "144511.515000", "144511.515000", "144511.515000", "144511.515000", "144511.515000", "144511.515000", "144511.515000", "144511.531000", "144511.531000", "144511.531000", "144511.531000", "144511.531000", "144511.531000", "144511.531000", "144511.546000", "144511.546000", "144511.546000", "144511.546000", "144511.546000", "144531.500000", "144531.500000", "144531.500000", "144531.500000", "144531.500000", "144531.515000", "144531.515000", "144531.515000", "144531.515000", "144531.515000", "144531.515000", "144531.515000", "144531.515000", "144531.531000", "144531.531000", "144531.531000", "144531.531000", "144531.531000", "144531.531000", "144531.546000", "144551.500000", "144551.500000", "144551.500000", "144551.515000", "144551.515000", "144551.515000", "144551.515000", "144551.515000", "144551.515000", "144551.515000", "144551.531000", "144551.531000", "144551.531000", "144551.531000", "144551.531000", "144551.546000", "144551.546000", "144551.546000", "144551.546000", "144551.546000", "144611.500000", "144611.500000", "144611.500000", "144611.500000", "144611.500000", "144611.515000", "144611.515000", "144611.515000", "144611.515000", "144611.515000", "144611.515000", "144611.515000", "144611.515000", "144611.531000", "144611.531000", "144611.531000", "144611.531000", "144611.531000", "144611.531000", "144611.531000", "144631.500000", "144631.500000", "144631.500000", "144631.500000", "144631.500000", "144631.515000", "144631.515000", "144631.515000", "144631.515000", "144631.515000", "144631.531000", "144631.531000", "144631.531000", "144631.531000", "144631.531000", "144631.531000", "144631.531000", "144631.546000", "144631.546000", "144631.546000", "144651.500000", "144651.500000", "144651.500000", "144651.500000", "144651.500000", "144651.515000", "144651.515000", "144651.515000", "144651.515000", "144651.515000", "144651.531000", "144651.531000", "144651.531000", "144651.531000", "144651.531000", "144651.531000", "144651.531000", "144651.546000", "144651.546000", "144651.546000", "144711.500000", "144711.500000", "144711.500000", "144711.500000", "144711.500000", "144711.515000", "144711.515000", "144711.515000", "144711.515000", "144711.515000", "144711.515000", "144711.515000", "144711.515000", "144711.531000", "144711.531000", "144711.531000", "144711.531000", "144711.531000", "144711.531000", "144711.531000", "144731.500000", "144731.500000", "144731.500000", "144731.500000", "144731.500000", "144731.515000", "144731.515000", "144731.515000", "144731.515000", "144731.515000", "144731.515000", "144731.515000", "144731.515000", "144731.531000", "144731.531000", "144731.531000", "144731.531000", "144731.531000", "144731.531000", "144731.546000", "144736.656000"],
      "InstanceCreationTime": ["144231.531000", "144231.531000", "144231.531000", "144231.546000", "144231.546000", "144231.546000", "144231.546000", "144231.546000", "144231.546000", "144231.546000", "144231.562000", "144231.562000", "144231.562000", "144231.562000", "144231.562000", "144231.562000", "144231.562000", "144231.578000", "144231.578000", "144231.578000", "144231.578000", "144231.578000", "144231.578000", "144231.578000", "144231.578000", "144231.593000", "144231.593000", "144231.593000", "144231.593000", "144251.500000", "144251.500000", "144251.500000", "144251.500000", "144251.500000", "144251.515000", "144251.515000", "144251.515000", "144251.515000", "144251.515000", "144251.515000", "144251.531000", "144251.531000", "144251.531000", "144251.531000", "144251.531000", "144251.531000", "144251.531000", "144251.531000", "144251.546000", "144311.500000", "144311.500000", "144311.500000", "144311.515000", "144311.515000", "144311.531000", "144311.531000", "144311.531000", "144311.531000", "144311.531000", "144311.546000", "144311.546000", "144311.546000", "144311.546000", "144311.546000", "144311.546000", "144311.546000", "144311.562000", "144311.562000", "144311.562000", "144331.500000", "144331.500000", "144331.500000", "144331.500000", "144331.500000", "144331.515000", "144331.515000", "144331.515000", "144331.515000", "144331.515000", "144331.531000", "144331.531000", "144331.531000", "144331.531000", "144331.531000", "144331.531000", "144331.531000", "144331.546000", "144331.546000", "144331.546000", "144351.500000", "144351.500000", "144351.500000", "144351.500000", "144351.515000", "144351.515000", "144351.515000", "144351.515000", "144351.515000", "144351.515000", "144351.515000", "144351.531000", "144351.531000", "144351.531000", "144351.531000", "144351.531000", "144351.531000", "144351.531000", "144351.546000", "144351.546000", "144411.500000", "144411.500000", "144411.500000", "144411.500000", "144411.500000", "144411.515000", "144411.515000", "144411.515000", "144411.515000", "144411.531000", "144411.531000", "144411.531000", "144411.531000", "144411.531000", "144411.531000", "144411.531000", "144411.531000", "144411.546000", "144411.546000", "144411.546000", "144431.500000", "144431.500000", "144431.500000", "144431.500000", "144431.500000", "144431.515000", "144431.515000", "144431.515000", "144431.515000", "144431.515000", "144431.515000", "144431.515000", "144431.515000", "144431.531000", "144431.531000", "144431.531000", "144431.531000", "144431.531000", "144431.546000", "144431.546000", "144451.500000", "144451.500000", "144451.500000", "144451.500000", "144451.500000", "144451.515000", "144451.515000", "144451.515000", "144451.515000", "144451.515000", "144451.515000", "144451.515000", "144451.515000", "144451.531000", "144451.531000", "144451.531000", "144451.531000", "144451.531000", "144451.531000", "144451.531000", "144511.500000", "144511.515000", "144511.515000", "144511.515000", "144511.515000", "144511.515000", "144511.515000", "144511.515000", "144511.531000", "144511.531000", "144511.531000", "144511.531000", "144511.531000", "144511.531000", "144511.531000", "144511.546000", "144511.546000", "144511.546000", "144511.546000", "144511.546000", "144531.500000", "144531.500000", "144531.500000", "144531.500000", "144531.500000", "144531.515000", "144531.515000", "144531.515000", "144531.515000", "144531.515000", "144531.515000", "144531.515000", "144531.515000", "144531.531000", "144531.531000", "144531.531000", "144531.531000", "144531.531000", "144531.531000", "144531.546000", "144551.500000", "144551.500000", "144551.500000", "144551.515000", "144551.515000", "144551.515000", "144551.515000", "144551.515000", "144551.515000", "144551.515000", "144551.531000", "144551.531000", "144551.531000", "144551.531000", "144551.531000", "144551.546000", "144551.546000", "144551.546000", "144551.546000", "144551.546000", "144611.500000", "144611.500000", "144611.500000", "144611.500000", "144611.500000", "144611.515000", "144611.515000", "144611.515000", "144611.515000", "144611.515000", "144611.515000", "144611.515000", "144611.515000", "144611.531000", "144611.531000", "144611.531000", "144611.531000", "144611.531000", "144611.531000", "144611.531000", "144631.500000", "144631.500000", "144631.500000", "144631.500000", "144631.500000", "144631.515000", "144631.515000", "144631.515000", "144631.515000", "144631.515000", "144631.531000", "144631.531000", "144631.531000", "144631.531000", "144631.531000", "144631.531000", "144631.531000", "144631.546000", "144631.546000", "144631.546000", "144651.500000", "144651.500000", "144651.500000", "144651.500000", "144651.500000", "144651.515000", "144651.515000", "144651.515000", "144651.515000", "144651.515000", "144651.531000", "144651.531000", "144651.531000", "144651.531000", "144651.531000", "144651.531000", "144651.531000", "144651.546000", "144651.546000", "144651.546000", "144711.500000", "144711.500000", "144711.500000", "144711.500000", "144711.500000", "144711.515000", "144711.515000", "144711.515000", "144711.515000", "144711.515000", "144711.515000", "144711.515000", "144711.515000", "144711.531000", "144711.531000", "144711.531000", "144711.531000", "144711.531000", "144711.531000", "144711.531000", "144731.500000", "144731.500000", "144731.500000", "144731.500000", "144731.500000", "144731.515000", "144731.515000", "144731.515000", "144731.515000", "144731.515000", "144731.515000", "144731.515000", "144731.515000", "144731.531000", "144731.531000", "144731.531000", "144731.531000", "144731.531000", "144731.531000", "144731.546000", "144736.656000"],
      "InstanceNumber": [1, 2, 3, 4, 5, 6, 7, 8, 9, 10, 11, 12, 13, 14, 15, 16, 17, 18, 19, 20, 21, 22, 23, 24, 25, 26, 27, 28, 29, 30, 31, 32, 33, 34, 35, 36, 37, 38, 39, 40, 41, 42, 43, 44, 45, 46, 47, 48, 49, 50, 51, 52, 53, 54, 55, 56, 57, 58, 59, 60, 61, 62, 63, 64, 65, 66, 67, 68, 69, 70, 71, 72, 73, 74, 75, 76, 77, 78, 79, 80, 81, 82, 83, 84, 85, 86, 87, 88, 89, 90, 91, 92, 93, 94, 95, 96, 97, 98, 99, 100, 101, 102, 103, 104, 105, 106, 107, 108, 109, 110, 111, 112, 113, 114, 115, 116, 117, 118, 119, 120, 121, 122, 123, 124, 125, 126, 127, 128, 129, 130, 131, 132, 133, 134, 135, 136, 137, 138, 139, 140, 141, 142, 143, 144, 145, 146, 147, 148, 149, 150, 151, 152, 153, 154, 155, 156, 157, 158, 159, 160, 161, 162, 163, 164, 165, 166, 167, 168, 169, 170, 171, 172, 173, 174, 175, 176, 177, 178, 179, 180, 181, 182, 183, 184, 185, 186, 187, 188, 189, 190, 191, 192, 193, 194, 195, 196, 197, 198, 199, 200, 201, 202, 203, 204, 205, 206, 207, 208, 209, 210, 211, 212, 213, 214, 215, 216, 217, 218, 219, 220, 221, 222, 223, 224, 225, 226, 227, 228, 229, 230, 231, 232, 233, 234, 235, 236, 237, 238, 239, 240, 241, 242, 243, 244, 245, 246, 247, 248, 249, 250, 251, 252, 253, 254, 255, 256, 257, 258, 259, 260, 261, 262, 263, 264, 265, 266, 267, 268, 269, 270, 271, 272, 273, 274, 275, 276, 277, 278, 279, 280, 281, 282, 283, 284, 285, 286, 287, 288, 289, 290, 291, 292, 293, 294, 295, 296, 297, 298, 299, 300, 301, 302, 303, 304, 305, 306, 307, 308, 309, 310, 311, 312, 313, 314, 315, 316, 317, 318, 319, 320, 321, 322, 323, 324, 325, 326, 327, 328, 329, 330],
      "LargestImagePixelValue": [2214, 2250, 2318, 2179, 2163, 2152, 2161, 2148, 2123, 2151, 2175, 2149, 2155, 2141, 2207, 2149, 2161, 2143, 2158, 2157, 2131, 2214, 2321, 2148, 2137, 2176, 2289, 2197, 2195, 2278, 2171, 2170, 2243, 2168, 2161, 2178, 2202, 2162, 2154, 2230, 2168, 2139, 2156, 2129, 2149, 2121, 2138, 2140, 2116, 2142, 2137, 2130, 2122, 2182, 2142, 2110, 2162, 2170, 2113, 2188, 2135, 2122, 2168, 2143, 2133, 2144, 2176, 2129, 2131, 2128, 2139, 2197, 2176, 2159, 2139, 2170, 2171, 2148, 2157, 2200, 2153, 2153, 2183, 2158, 2140, 2218, 2147, 2159, 2151, 2159, 2145, 2155, 2133, 2140, 2148, 2149, 2129, 2124, 2253, 2146, 2120, 2096, 2171, 2152, 2129, 2111, 2136, 2122, 2129, 2129, 2145, 2113, 2152, 2128, 2237, 2192, 2133, 2172, 2180, 2213, 2153, 2152, 2153, 2185, 2132, 2169, 2182, 2144, 2175, 2165, 2199, 2143, 2218, 2179, 2158, 2167, 2164, 2181, 2152, 2213, 2196, 2108, 2358, 2333, 2389, 2408, 2372, 2382, 2378, 2369, 2373, 2349, 2334, 2340, 2334, 2370, 2360, 2371, 2341, 2326, 2374, 2316, 2282, 2312, 2312, 2317, 2323, 2315, 2314, 2343, 2385, 2315, 2302, 2347, 2320, 2290, 2336, 2305, 2299, 2297, 2354, 2340, 2288, 2304, 2345, 2310, 2283, 2358, 2342, 2294, 2281, 2325, 2303, 2309, 2352, 2333, 2301, 2313, 2347, 2336, 2350, 2331, 2299, 2286, 2358, 2352, 2231, 2261, 2278, 2291, 2341, 2297, 2287, 2284, 2207, 2191, 2196, 2187, 2224, 2216, 2233, 2192, 2222, 2215, 2225, 2208, 2229, 2190, 2215, 2252, 2203, 2223, 2207, 2202, 2189, 2182, 2217, 2206, 2200, 2207, 2193, 2182, 2222, 2203, 2203, 2205, 2200, 2192, 2197, 2205, 2205, 2170, 2172, 2189, 2214, 2182, 2175, 2225, 2191, 2201, 2220, 2206, 2242, 2178, 2178, 2203, 2210, 2191, 2200, 2207, 2209, 2202, 2211, 2217, 2198, 2173, 2232, 2208, 2221, 2212, 2214, 2206, 2214, 2207, 2203, 2199, 2222, 2194, 2242, 2220, 2191, 2204, 2175, 2178, 2213, 2195, 2215, 2184, 2228, 2207, 2194, 2181, 2209, 2166, 2201, 2182, 2161, 2162, 2167, 2156, 2204, 2191, 2157, 2161, 2166, 2166, 2138, 2178, 2188, 2193, 2193, 2203, 2215, 2224, 2182, 2195, 2178, 2191, 2168, 2229],
      "WindowCenter": [455.0, 456.0, 457.0, 455.0, 455.0, 455.0, 455.0, 454.0, 453.0, 453.0, 453.0, 452.0, 452.0, 453.0, 453.0, 452.0, 453.0, 454.0, 455.0, 456.0, 456.0, 456.0, 455.0, 454.0, 452.0, 454.0, 456.0, 455.0, 456.0, 456.0, 454.0, 453.0, 453.0, 452.0, 452.0, 453.0, 454.0, 453.0, 453.0, 454.0, 452.0, 450.0, 451.0, 450.0, 451.0, 452.0, 455.0, 456.0, 455.0, 456.0, 455.0, 454.0, 453.0, 454.0, 453.0, 453.0, 455.0, 455.0, 456.0, 458.0, 456.0, 454.0, 455.0, 453.0, 452.0, 453.0, 454.0, 454.0, 454.0, 454.0, 454.0, 453.0, 453.0, 452.0, 452.0, 454.0, 453.0, 452.0, 453.0, 454.0, 453.0, 453.0, 455.0, 454.0, 454.0, 456.0, 455.0, 455.0, 455.0, 454.0, 453.0, 454.0, 453.0, 452.0, 452.0, 452.0, 453.0, 452.0, 452.0, 451.0, 452.0, 453.0, 456.0, 457.0, 456.0, 455.0, 455.0, 453.0, 452.0, 453.0, 453.0, 452.0, 453.0, 453.0, 455.0, 455.0, 455.0, 455.0, 455.0, 455.0, 454.0, 454.0, 453.0, 455.0, 455.0, 454.0, 454.0, 454.0, 453.0, 453.0, 454.0, 453.0, 454.0, 455.0, 455.0, 455.0, 455.0, 455.0, 454.0, 454.0, 454.0, 453.0, 457.0, 459.0, 459.0, 459.0, 458.0, 457.0, 457.0, 455.0, 455.0, 453.0, 453.0, 453.0, 453.0, 454.0, 456.0, 456.0, 456.0, 456.0, 457.0, 455.0, 454.0, 455.0, 455.0, 455.0, 456.0, 456.0, 456.0, 457.0, 457.0, 455.0, 455.0, 456.0, 455.0, 454.0, 455.0, 455.0, 456.0, 457.0, 458.0, 457.0, 456.0, 456.0, 456.0, 455.0, 454.0, 455.0, 455.0, 455.0, 456.0, 456.0, 456.0, 456.0, 457.0, 456.0, 456.0, 455.0, 456.0, 456.0, 457.0, 458.0, 457.0, 456.0, 457.0, 455.0, 454.0, 454.0, 455.0, 457.0, 458.0, 458.0, 458.0, 457.0, 455.0, 454.0, 455.0, 455.0, 456.0, 457.0, 457.0, 455.0, 455.0, 455.0, 454.0, 454.0, 455.0, 455.0, 455.0, 457.0, 456.0, 457.0, 456.0, 456.0, 455.0, 455.0, 455.0, 454.0, 455.0, 454.0, 455.0, 455.0, 455.0, 455.0, 454.0, 455.0, 456.0, 455.0, 456.0, 456.0, 456.0, 455.0, 454.0, 454.0, 453.0, 454.0, 455.0, 455.0, 456.0, 457.0, 456.0, 456.0, 455.0, 455.0, 455.0, 456.0, 457.0, 458.0, 458.0, 457.0, 456.0, 455.0, 455.0, 455.0, 454.0, 454.0, 455.0, 454.0, 454.0, 454.0, 453.0, 454.0, 455.0, 455.0, 455.0, 455.0, 455.0, 454.0, 455.0, 455.0, 454.0, 454.0, 454.0, 454.0, 455.0, 455.0, 456.0, 456.0, 457.0, 457.0, 455.0, 455.0, 455.0, 455.0, 456.0, 456.0, 455.0, 455.0, 454.0, 453.0, 454.0, 453.0, 453.0, 454.0, 454.0, 454.0, 454.0, 454.0, 454.0, 454.0, 454.0, 454.0, 454.0, 454.0, 454.0, 455.0, 454.0, 454.0, 454.0, 455.0],
