{
  "AcquisitionMatrixPE": 104,
  "AcquisitionNumber": 1,
  "AcquisitionTime": "13:48:37.472500",
  "BandwidthPerPixelPhaseEncode": 43.054,
  "BaseResolution": 104,
  "CoilString": "C:E1_2",
  "ConversionSoftware": "dcm2niix",
  "ConversionSoftwareVersion": "v1.0.20191031",
  "DerivedVendorReportedEchoSpacing": 0.000669999,
  "DeviceSerialNumber": "18932",
  "DwellTime": 2.8e-06,
  "EchoTime": 0.02,
  "EffectiveEchoSpacing": 0.000223333,
  "FlipAngle": 30,
  "ImageComments": "Unaliased_MB2_PE2",
  "ImageOrientationPatientDICOM": [1, 2e-16, 0, -2e-16, 0.961741, -0.273959],
  "ImageType": [
    "ORIGINAL",
    "PRIMARY",
    "M",
    "MB",
    "ND",
    "MOSAIC"
],
  "ImagingFrequency": 297.229,
  "InPlanePhaseEncodingDirectionDICOM": "COL",
  "InstitutionAddress": "Richmond_Street_North_1151_London_409EF2_Ontario_CA_N6A_5B7",
  "InstitutionName": "Robarts_Reserch_Institute",
  "InstitutionalDepartmentName": "Department",
  "MRAcquisitionType": "2D",
  "MagneticFieldStrength": 6.98,
  "Manufacturer": "Siemens",
  "ManufacturersModelName": "Investigational_Device_7T",
  "Modality": "MR",
  "MultibandAccelerationFactor": 2,
  "ParallelReductionFactorInPlane": 3,
  "PartialFourier": 0.875,
  "PatientPosition": "HFS",
  "PercentPhaseFOV": 100,
  "PhaseEncodingDirection": "j-",
  "PhaseEncodingSteps": 91,
  "PhaseResolution": 1,
  "PixelBandwidth": 1717,
  "ProcedureStepDescription": "Diedrichsen_SeqRep4",
  "ProtocolName": "mbep2d_bold_mb2_p3_AP_2iso",
  "PulseSequenceDetails": "%CustomerSeq%_cmrr_mbep2d_bold",
  "ReceiveCoilName": "CFMM_8Tx32Rx",
  "ReconMatrixPE": 104,
  "RefLinesPE": 36,
  "RepetitionTime": 1,
  "ScanOptions": "PFP_FS",
  "ScanningSequence": "EP",
  "SequenceName": "epfid2d1_104",
  "SequenceVariant": "SK_SS",
  "SeriesDescription": "mbep2d_bold_mb2_p3_AP_2iso",
  "SeriesNumber": 34,
  "ShimSetting": [29, 2057, 86, 1756, 53, 131, 355, -110],
  "SliceThickness": 2,
  "SliceTiming": [0, 0.2275, 0.4575, 0.685, 0.9125, 0.1375, 0.365, 0.5925, 0.8225, 0.045, 0.275, 0.5025, 0.73, 0.9575, 0.1825, 0.41, 0.64, 0.8675, 0.0925, 0.32, 0.5475, 0.775, 0, 0.2275, 0.4575, 0.685, 0.9125, 0.1375, 0.365, 0.5925, 0.8225, 0.045, 0.275, 0.5025, 0.73, 0.9575, 0.1825, 0.41, 0.64, 0.8675, 0.0925, 0.32, 0.5475, 0.775],
  "SoftwareVersions": "syngo_MR_B17",
  "SpacingBetweenSlices": 2,
  "StationName": "MASTER",
  "TaskName": "dsp",
  "TotalReadoutTime": 0.0230033,
  "TxRefAmp": 120,
  "dcmmeta_affine": [
    [-2.0, -4.000000067449534e-16, 1.0958368979349813e-16, 105.4527816772461],
    [-4.000000067449534e-16, 1.9234826564788818, -0.547918438911438, -102.30016326904297],
    [0.0, 0.547918438911438, 1.9234826564788818, -44.65082550048828],
    [0.0, 0.0, 0.0, 1.0]
],
  "dcmmeta_reorient_transform": [
    [0.0, -1.0, 0.0, 103.0],
    [1.0, 0.0, 0.0, 0.0],
    [0.0, 0.0, 1.0, 0.0],
    [0.0, 0.0, 0.0, 1.0]
],
  "dcmmeta_shape": [104, 104, 44, 330],
  "dcmmeta_slice_dim": 2,
  "dcmmeta_version": 0.6,
  "global": {
    "const": {
      "AcquisitionMatrix": [104, 0, 0, 104],
      "AngioFlag": "N",
      "BitsAllocated": 16,
      "BitsStored": 12,
      "Columns": 728,
      "EchoNumbers": 1,
      "EchoTime": 20.0,
      "EchoTrainLength": 1,
      "FlipAngle": 30.0,
      "HighBit": 11,
      "ImageOrientationPatient": [1.0, 2e-16, 0.0, -2e-16, 0.96174130993141, -0.2739592173507],
      "ImagePositionPatient": [-729.45278453827, -695.94512226517, 182.73532666503],
      "ImageType": [
        "ORIGINAL",
        "PRIMARY",
        "M",
        "MB",
        "ND",
        "MOSAIC"
],
      "ImagedNucleus": "1H",
      "ImagingFrequency": 297.228806,
      "InPlanePhaseEncodingDirection": "COL",
      "MRAcquisitionType": "2D",
      "MagneticFieldStrength": 6.98,
      "Manufacturer": "SIEMENS",
      "ManufacturerModelName": "Investigational_Device_7T",
      "Modality": "MR",
      "NumberOfAverages": 1.0,
      "NumberOfPhaseEncodingSteps": 91,
      "PercentPhaseFieldOfView": 100.0,
      "PercentSampling": 100.0,
      "PerformedProcedureStepStartTime": "122510.093000",
      "PhotometricInterpretation": "MONOCHROME2",
      "PixelBandwidth": 1717.0,
      "PixelRepresentation": 0,
      "PixelSpacing": [2.0, 2.0],
      "ProtocolName": "mbep2d_bold_mb2_p3_AP 2iso",
      "RepetitionTime": 1000.0,
      "Rows": 728,
      "SAR": 0.0,
      "SamplesPerPixel": 1,
      "ScanOptions": [
        "PFP",
        "FS"
],
      "ScanningSequence": "EP",
      "SequenceName": "epfid2d1_104",
      "SequenceVariant": [
        "SK",
        "SS"
],
      "SeriesDescription": "mbep2d_bold_mb2_p3_AP 2iso",
      "SeriesNumber": 34,
      "SeriesTime": "134901.140000",
      "SliceLocation": -14.916468577237,
      "SliceThickness": 2.0,
      "SmallestImagePixelValue": 0,
      "SoftwareVersions": "syngo MR B17",
      "SpacingBetweenSlices": 2.0000000104656,
      "SpecificCharacterSet": "ISO_IR 100",
      "StudyID": "1",
      "StudyTime": "122510.031000",
      "TransmitCoilName": "CFMM_8Tx32Rx",
      "VariableFlipAngleFlag": "N",
      "WindowCenterWidthExplanation": "Algo1",
      "dBdt": 0.0},
    "slices": {}
  },
  "time": {
    "samples": {
      "AcquisitionNumber": [1, 2, 3, 4, 5, 6, 7, 8, 9, 10, 11, 12, 13, 14, 15, 16, 17, 18, 19, 20, 21, 22, 23, 24, 25, 26, 27, 28, 29, 30, 31, 32, 33, 34, 35, 36, 37, 38, 39, 40, 41, 42, 43, 44, 45, 46, 47, 48, 49, 50, 51, 52, 53, 54, 55, 56, 57, 58, 59, 60, 61, 62, 63, 64, 65, 66, 67, 68, 69, 70, 71, 72, 73, 74, 75, 76, 77, 78, 79, 80, 81, 82, 83, 84, 85, 86, 87, 88, 89, 90, 91, 92, 93, 94, 95, 96, 97, 98, 99, 100, 101, 102, 103, 104, 105, 106, 107, 108, 109, 110, 111, 112, 113, 114, 115, 116, 117, 118, 119, 120, 121, 122, 123, 124, 125, 126, 127, 128, 129, 130, 131, 132, 133, 134, 135, 136, 137, 138, 139, 140, 141, 142, 143, 144, 145, 146, 147, 148, 149, 150, 151, 152, 153, 154, 155, 156, 157, 158, 159, 160, 161, 162, 163, 164, 165, 166, 167, 168, 169, 170, 171, 172, 173, 174, 175, 176, 177, 178, 179, 180, 181, 182, 183, 184, 185, 186, 187, 188, 189, 190, 191, 192, 193, 194, 195, 196, 197, 198, 199, 200, 201, 202, 203, 204, 205, 206, 207, 208, 209, 210, 211, 212, 213, 214, 215, 216, 217, 218, 219, 220, 221, 222, 223, 224, 225, 226, 227, 228, 229, 230, 231, 232, 233, 234, 235, 236, 237, 238, 239, 240, 241, 242, 243, 244, 245, 246, 247, 248, 249, 250, 251, 252, 253, 254, 255, 256, 257, 258, 259, 260, 261, 262, 263, 264, 265, 266, 267, 268, 269, 270, 271, 272, 273, 274, 275, 276, 277, 278, 279, 280, 281, 282, 283, 284, 285, 286, 287, 288, 289, 290, 291, 292, 293, 294, 295, 296, 297, 298, 299, 300, 301, 302, 303, 304, 305, 306, 307, 308, 309, 310, 311, 312, 313, 314, 315, 316, 317, 318, 319, 320, 321, 322, 323, 324, 325, 326, 327, 328, 329, 330],
      "AcquisitionTime": ["134837.472500", "134838.477500", "134839.480000", "134840.485000", "134841.490000", "134842.492500", "134843.497500", "134844.500000", "134845.505000", "134846.510000", "134847.512500", "134848.517500", "134849.522500", "134850.525000", "134851.530000", "134852.532500", "134853.537500", "134854.542500", "134855.545000", "134856.550000", "134857.552500", "134858.557500", "134859.562500", "134900.565000", "134901.570000", "134902.572500", "134903.577500", "134904.582500", "134905.585000", "134906.590000", "134907.592500", "134908.597500", "134909.602500", "134910.605000", "134911.610000", "134912.612500", "134913.617500", "134914.622500", "134915.625000", "134916.630000", "134917.635000", "134918.637500", "134919.642500", "134920.645000", "134921.650000", "134922.655000", "134923.657500", "134924.662500", "134925.665000", "134926.670000", "134927.675000", "134928.677500", "134929.682500", "134930.685000", "134931.690000", "134932.695000", "134933.697500", "134934.702500", "134935.705000", "134936.710000", "134937.715000", "134938.717500", "134939.722500", "134940.725000", "134941.730000", "134942.735000", "134943.737500", "134944.742500", "134945.745000", "134946.750000", "134947.755000", "134948.757500", "134949.762500", "134950.767500", "134951.770000", "134952.775000", "134953.777500", "134954.782500", "134955.787500", "134956.790000", "134957.795000", "134958.797500", "134959.802500", "135000.807500", "135001.810000", "135002.815000", "135003.817500", "135004.822500", "135005.827500", "135006.830000", "135007.835000", "135008.837500", "135009.842500", "135010.847500", "135011.850000", "135012.855000", "135013.857500", "135014.862500", "135015.867500", "135016.870000", "135017.875000", "135018.877500", "135019.882500", "135020.887500", "135021.890000", "135022.895000", "135023.900000", "135024.902500", "135025.907500", "135026.910000", "135027.915000", "135028.920000", "135029.922500", "135030.927500", "135031.930000", "135032.935000", "135033.940000", "135034.942500", "135035.947500", "135036.950000", "135037.955000", "135038.960000", "135039.962500", "135040.967500", "135041.970000", "135042.975000", "135043.980000", "135044.982500", "135045.987500", "135046.990000", "135047.995000", "135049.000000", "135050.002500", "135051.007500", "135052.012500", "135053.015000", "135054.020000", "135055.022500", "135056.027500", "135057.032500", "135058.035000", "135059.040000", "135100.042500", "135101.047500", "135102.052500", "135103.055000", "135104.060000", "135105.062500", "135106.067500", "135107.072500", "135108.075000", "135109.080000", "135110.082500", "135111.087500", "135112.092500", "135113.095000", "135114.100000", "135115.102500", "135116.107500", "135117.112500", "135118.115000", "135119.120000", "135120.122500", "135121.127500", "135122.132500", "135123.135000", "135124.140000", "135125.145000", "135126.147500", "135127.152500", "135128.155000", "135129.160000", "135130.165000", "135131.167500", "135132.172500", "135133.175000", "135134.180000", "135135.185000", "135136.187500", "135137.192500", "135138.195000", "135139.200000", "135140.205000", "135141.207500", "135142.212500", "135143.215000", "135144.220000", "135145.225000", "135146.227500", "135147.232500", "135148.235000", "135149.240000", "135150.245000", "135151.247500", "135152.252500", "135153.255000", "135154.260000", "135155.265000", "135156.267500", "135157.272500", "135158.277500", "135159.280000", "135200.285000", "135201.287500", "135202.292500", "135203.297500", "135204.300000", "135205.305000", "135206.307500", "135207.312500", "135208.317500", "135209.320000", "135210.325000", "135211.327500", "135212.332500", "135213.337500", "135214.340000", "135215.345000", "135216.347500", "135217.352500", "135218.357500", "135219.360000", "135220.365000", "135221.367500", "135222.372500", "135223.377500", "135224.380000", "135225.385000", "135226.390000", "135227.392500", "135228.397500", "135229.400000", "135230.405000", "135231.410000", "135232.412500", "135233.417500", "135234.420000", "135235.425000", "135236.430000", "135237.432500", "135238.437500", "135239.440000", "135240.445000", "135241.450000", "135242.452500", "135243.457500", "135244.460000", "135245.465000", "135246.470000", "135247.472500", "135248.477500", "135249.480000", "135250.485000", "135251.490000", "135252.492500", "135253.497500", "135254.500000", "135255.505000", "135256.510000", "135257.512500", "135258.517500", "135259.522500", "135300.525000", "135301.530000", "135302.532500", "135303.537500", "135304.542500", "135305.545000", "135306.550000", "135307.552500", "135308.557500", "135309.562500", "135310.565000", "135311.570000", "135312.572500", "135313.577500", "135314.582500", "135315.585000", "135316.590000", "135317.592500", "135318.597500", "135319.602500", "135320.605000", "135321.610000", "135322.612500", "135323.617500", "135324.622500", "135325.625000", "135326.630000", "135327.635000", "135328.637500", "135329.642500", "135330.645000", "135331.650000", "135332.655000", "135333.657500", "135334.662500", "135335.665000", "135336.670000", "135337.675000", "135338.677500", "135339.682500", "135340.685000", "135341.690000", "135342.695000", "135343.697500", "135344.702500", "135345.705000", "135346.710000", "135347.715000", "135348.717500", "135349.722500", "135350.725000", "135351.730000", "135352.735000", "135353.737500", "135354.742500", "135355.745000", "135356.750000", "135357.755000", "135358.757500", "135359.762500", "135400.767500", "135401.770000", "135402.775000", "135403.777500", "135404.782500", "135405.787500", "135406.790000", "135407.795000"],
      "ContentTime": ["134901.140000", "134901.140000", "134901.140000", "134901.140000", "134901.140000", "134901.140000", "134901.156000", "134901.156000", "134901.156000", "134901.156000", "134901.156000", "134901.156000", "134901.156000", "134901.156000", "134901.171000", "134901.171000", "134901.171000", "134901.171000", "134901.171000", "134901.171000", "134901.171000", "134901.187000", "134921.093000", "134921.093000", "134921.093000", "134921.093000", "134921.093000", "134921.093000", "134921.093000", "134921.109000", "134921.109000", "134921.109000", "134921.109000", "134921.109000", "134921.125000", "134921.125000", "134921.125000", "134921.125000", "134921.125000", "134921.125000", "134921.140000", "134921.140000", "134941.093000", "134941.093000", "134941.093000", "134941.093000", "134941.093000", "134941.093000", "134941.093000", "134941.109000", "134941.109000", "134941.109000", "134941.109000", "134941.109000", "134941.109000", "134941.109000", "134941.125000", "134941.125000", "134941.125000", "134941.125000", "134941.125000", "134941.125000", "135001.093000", "135001.093000", "135001.093000", "135001.093000", "135001.093000", "135001.109000", "135001.109000", "135001.109000", "135001.109000", "135001.109000", "135001.125000", "135001.125000", "135001.125000", "135001.125000", "135001.125000", "135001.125000", "135001.140000", "135001.140000", "135001.140000", "135001.140000", "135021.093000", "135021.093000", "135021.093000", "135021.093000", "135021.093000", "135021.093000", "135021.093000", "135021.109000", "135021.109000", "135021.109000", "135021.109000", "135021.109000", "135021.109000", "135021.109000", "135021.109000", "135021.125000", "135021.125000", "135021.125000", "135021.125000", "135021.125000", "135041.093000", "135041.093000", "135041.093000", "135041.093000", "135041.093000", "135041.093000", "135041.093000", "135041.109000", "135041.109000", "135041.109000", "135041.109000", "135041.109000", "135041.109000", "135041.109000", "135041.125000", "135041.125000", "135041.125000", "135041.125000", "135041.125000", "135041.125000", "135101.093000", "135101.093000", "135101.093000", "135101.093000", "135101.093000", "135101.093000", "135101.093000", "135101.109000", "135101.109000", "135101.109000", "135101.109000", "135101.109000", "135101.109000", "135101.109000", "135101.125000", "135101.125000", "135101.125000", "135101.125000", "135101.125000", "135101.140000", "135121.093000", "135121.093000", "135121.093000", "135121.093000", "135121.093000", "135121.093000", "135121.109000", "135121.109000", "135121.109000", "135121.109000", "135121.109000", "135121.109000", "135121.109000", "135121.125000", "135121.125000", "135121.125000", "135121.125000", "135121.125000", "135121.140000", "135121.140000", "135141.093000", "135141.093000", "135141.093000", "135141.093000", "135141.093000", "135141.093000", "135141.109000", "135141.109000", "135141.109000", "135141.109000", "135141.109000", "135141.109000", "135141.109000", "135141.125000", "135141.125000", "135141.125000", "135141.125000", "135141.125000", "135141.125000", "135141.125000", "135201.093000", "135201.093000", "135201.093000", "135201.093000", "135201.093000", "135201.093000", "135201.093000", "135201.109000", "135201.109000", "135201.109000", "135201.109000", "135201.109000", "135201.109000", "135201.109000", "135201.125000", "135201.125000", "135201.125000", "135201.125000", "135201.125000", "135201.125000", "135221.093000", "135221.093000", "135221.093000", "135221.093000", "135221.093000", "135221.093000", "135221.093000", "135221.109000", "135221.109000", "135221.109000", "135221.109000", "135221.109000", "135221.109000", "135221.109000", "135221.125000", "135221.125000", "135221.125000", "135221.125000", "135221.125000", "135221.125000", "135241.093000", "135241.093000", "135241.093000", "135241.109000", "135241.109000", "135241.109000", "135241.109000", "135241.109000", "135241.109000", "135241.109000", "135241.109000", "135241.125000", "135241.125000", "135241.125000", "135241.125000", "135241.125000", "135241.140000", "135241.140000", "135241.140000", "135241.140000", "135301.078000", "135301.093000", "135301.093000", "135301.093000", "135301.093000", "135301.093000", "135301.093000", "135301.093000", "135301.109000", "135301.109000", "135301.109000", "135301.109000", "135301.109000", "135301.109000", "135301.109000", "135301.125000", "135301.125000", "135301.125000", "135301.125000", "135301.125000", "135321.078000", "135321.093000", "135321.093000", "135321.093000", "135321.093000", "135321.093000", "135321.093000", "135321.109000", "135321.109000", "135321.109000", "135321.109000", "135321.109000", "135321.109000", "135321.109000", "135321.125000", "135321.125000", "135321.125000", "135321.125000", "135321.125000", "135321.125000", "135341.078000", "135341.093000", "135341.093000", "135341.093000", "135341.093000", "135341.093000", "135341.093000", "135341.093000", "135341.109000", "135341.109000", "135341.109000", "135341.109000", "135341.109000", "135341.109000", "135341.109000", "135341.125000", "135341.125000", "135341.125000", "135341.125000", "135341.140000", "135401.078000", "135401.093000", "135401.093000", "135401.093000", "135401.093000", "135401.093000", "135401.093000", "135401.093000", "135401.109000", "135401.109000", "135401.109000", "135401.109000", "135401.109000", "135401.109000", "135401.109000", "135401.125000", "135401.125000", "135401.125000", "135401.125000", "135401.140000", "135413.500000", "135413.500000", "135413.515000", "135413.515000", "135413.515000", "135413.515000", "135413.515000", "135413.531000"],
      "InstanceCreationTime": ["134901.140000", "134901.140000", "134901.140000", "134901.140000", "134901.140000", "134901.140000", "134901.156000", "134901.156000", "134901.156000", "134901.156000", "134901.156000", "134901.156000", "134901.156000", "134901.156000", "134901.171000", "134901.171000", "134901.171000", "134901.171000", "134901.171000", "134901.171000", "134901.171000", "134901.187000", "134921.093000", "134921.093000", "134921.093000", "134921.093000", "134921.093000", "134921.093000", "134921.093000", "134921.109000", "134921.109000", "134921.109000", "134921.109000", "134921.109000", "134921.125000", "134921.125000", "134921.125000", "134921.125000", "134921.125000", "134921.125000", "134921.140000", "134921.140000", "134941.093000", "134941.093000", "134941.093000", "134941.093000", "134941.093000", "134941.093000", "134941.093000", "134941.109000", "134941.109000", "134941.109000", "134941.109000", "134941.109000", "134941.109000", "134941.109000", "134941.125000", "134941.125000", "134941.125000", "134941.125000", "134941.125000", "134941.125000", "135001.093000", "135001.093000", "135001.093000", "135001.093000", "135001.093000", "135001.109000", "135001.109000", "135001.109000", "135001.109000", "135001.109000", "135001.125000", "135001.125000", "135001.125000", "135001.125000", "135001.125000", "135001.125000", "135001.140000", "135001.140000", "135001.140000", "135001.140000", "135021.093000", "135021.093000", "135021.093000", "135021.093000", "135021.093000", "135021.093000", "135021.093000", "135021.109000", "135021.109000", "135021.109000", "135021.109000", "135021.109000", "135021.109000", "135021.109000", "135021.109000", "135021.125000", "135021.125000", "135021.125000", "135021.125000", "135021.125000", "135041.093000", "135041.093000", "135041.093000", "135041.093000", "135041.093000", "135041.093000", "135041.093000", "135041.109000", "135041.109000", "135041.109000", "135041.109000", "135041.109000", "135041.109000", "135041.109000", "135041.125000", "135041.125000", "135041.125000", "135041.125000", "135041.125000", "135041.125000", "135101.093000", "135101.093000", "135101.093000", "135101.093000", "135101.093000", "135101.093000", "135101.093000", "135101.109000", "135101.109000", "135101.109000", "135101.109000", "135101.109000", "135101.109000", "135101.109000", "135101.125000", "135101.125000", "135101.125000", "135101.125000", "135101.125000", "135101.140000", "135121.093000", "135121.093000", "135121.093000", "135121.093000", "135121.093000", "135121.093000", "135121.109000", "135121.109000", "135121.109000", "135121.109000", "135121.109000", "135121.109000", "135121.109000", "135121.125000", "135121.125000", "135121.125000", "135121.125000", "135121.125000", "135121.140000", "135121.140000", "135141.093000", "135141.093000", "135141.093000", "135141.093000", "135141.093000", "135141.093000", "135141.109000", "135141.109000", "135141.109000", "135141.109000", "135141.109000", "135141.109000", "135141.109000", "135141.125000", "135141.125000", "135141.125000", "135141.125000", "135141.125000", "135141.125000", "135141.125000", "135201.093000", "135201.093000", "135201.093000", "135201.093000", "135201.093000", "135201.093000", "135201.093000", "135201.109000", "135201.109000", "135201.109000", "135201.109000", "135201.109000", "135201.109000", "135201.109000", "135201.125000", "135201.125000", "135201.125000", "135201.125000", "135201.125000", "135201.125000", "135221.093000", "135221.093000", "135221.093000", "135221.093000", "135221.093000", "135221.093000", "135221.093000", "135221.109000", "135221.109000", "135221.109000", "135221.109000", "135221.109000", "135221.109000", "135221.109000", "135221.125000", "135221.125000", "135221.125000", "135221.125000", "135221.125000", "135221.125000", "135241.093000", "135241.093000", "135241.093000", "135241.109000", "135241.109000", "135241.109000", "135241.109000", "135241.109000", "135241.109000", "135241.109000", "135241.109000", "135241.125000", "135241.125000", "135241.125000", "135241.125000", "135241.125000", "135241.140000", "135241.140000", "135241.140000", "135241.140000", "135301.078000", "135301.093000", "135301.093000", "135301.093000", "135301.093000", "135301.093000", "135301.093000", "135301.093000", "135301.109000", "135301.109000", "135301.109000", "135301.109000", "135301.109000", "135301.109000", "135301.109000", "135301.125000", "135301.125000", "135301.125000", "135301.125000", "135301.125000", "135321.078000", "135321.093000", "135321.093000", "135321.093000", "135321.093000", "135321.093000", "135321.093000", "135321.109000", "135321.109000", "135321.109000", "135321.109000", "135321.109000", "135321.109000", "135321.109000", "135321.125000", "135321.125000", "135321.125000", "135321.125000", "135321.125000", "135321.125000", "135341.078000", "135341.093000", "135341.093000", "135341.093000", "135341.093000", "135341.093000", "135341.093000", "135341.093000", "135341.109000", "135341.109000", "135341.109000", "135341.109000", "135341.109000", "135341.109000", "135341.109000", "135341.125000", "135341.125000", "135341.125000", "135341.125000", "135341.140000", "135401.078000", "135401.093000", "135401.093000", "135401.093000", "135401.093000", "135401.093000", "135401.093000", "135401.093000", "135401.109000", "135401.109000", "135401.109000", "135401.109000", "135401.109000", "135401.109000", "135401.109000", "135401.125000", "135401.125000", "135401.125000", "135401.125000", "135401.140000", "135413.500000", "135413.500000", "135413.515000", "135413.515000", "135413.515000", "135413.515000", "135413.515000", "135413.531000"],
      "InstanceNumber": [1, 2, 3, 4, 5, 6, 7, 8, 9, 10, 11, 12, 13, 14, 15, 16, 17, 18, 19, 20, 21, 22, 23, 24, 25, 26, 27, 28, 29, 30, 31, 32, 33, 34, 35, 36, 37, 38, 39, 40, 41, 42, 43, 44, 45, 46, 47, 48, 49, 50, 51, 52, 53, 54, 55, 56, 57, 58, 59, 60, 61, 62, 63, 64, 65, 66, 67, 68, 69, 70, 71, 72, 73, 74, 75, 76, 77, 78, 79, 80, 81, 82, 83, 84, 85, 86, 87, 88, 89, 90, 91, 92, 93, 94, 95, 96, 97, 98, 99, 100, 101, 102, 103, 104, 105, 106, 107, 108, 109, 110, 111, 112, 113, 114, 115, 116, 117, 118, 119, 120, 121, 122, 123, 124, 125, 126, 127, 128, 129, 130, 131, 132, 133, 134, 135, 136, 137, 138, 139, 140, 141, 142, 143, 144, 145, 146, 147, 148, 149, 150, 151, 152, 153, 154, 155, 156, 157, 158, 159, 160, 161, 162, 163, 164, 165, 166, 167, 168, 169, 170, 171, 172, 173, 174, 175, 176, 177, 178, 179, 180, 181, 182, 183, 184, 185, 186, 187, 188, 189, 190, 191, 192, 193, 194, 195, 196, 197, 198, 199, 200, 201, 202, 203, 204, 205, 206, 207, 208, 209, 210, 211, 212, 213, 214, 215, 216, 217, 218, 219, 220, 221, 222, 223, 224, 225, 226, 227, 228, 229, 230, 231, 232, 233, 234, 235, 236, 237, 238, 239, 240, 241, 242, 243, 244, 245, 246, 247, 248, 249, 250, 251, 252, 253, 254, 255, 256, 257, 258, 259, 260, 261, 262, 263, 264, 265, 266, 267, 268, 269, 270, 271, 272, 273, 274, 275, 276, 277, 278, 279, 280, 281, 282, 283, 284, 285, 286, 287, 288, 289, 290, 291, 292, 293, 294, 295, 296, 297, 298, 299, 300, 301, 302, 303, 304, 305, 306, 307, 308, 309, 310, 311, 312, 313, 314, 315, 316, 317, 318, 319, 320, 321, 322, 323, 324, 325, 326, 327, 328, 329, 330],
      "LargestImagePixelValue": [2795, 2778, 2712, 2751, 2761, 2714, 2656, 2665, 2709, 2709, 2677, 2681, 2725, 2708, 2723, 2706, 2705, 2712, 2705, 2703, 2677, 2658, 2667, 2669, 2721, 2683, 2653, 2700, 2688, 2678, 2668, 2667, 2711, 2674, 2669, 2708, 2662, 2671, 2715, 2709, 2686, 2697, 2698, 2712, 2696, 2755, 2676, 2687, 2699, 2717, 2673, 2654, 2696, 2699, 2696, 2684, 2736, 2665, 2681, 2679, 2683, 2642, 2696, 2755, 2728, 2636, 2671, 2684, 2716, 2699, 2691, 2686, 2694, 2716, 2700, 2703, 2704, 2711, 2698, 2703, 2689, 2671, 2730, 2689, 2655, 2670, 2686, 2695, 2687, 2716, 2673, 2682, 2669, 2686, 2683, 2691, 2664, 2662, 2683, 2688, 2706, 2677, 2658, 2677, 2657, 2701, 2644, 2666, 2674, 2701, 2654, 2688, 2696, 2707, 2685, 2647, 2693, 2699, 2668, 2706, 2692, 2676, 2675, 2701, 2686, 2673, 2639, 2685, 2673, 2692, 2634, 2709, 2709, 2704, 2660, 2696, 2678, 2670, 2701, 2652, 2700, 2636, 2642, 2675, 2648, 2652, 2628, 2719, 2669, 2643, 2641, 2709, 2686, 2696, 2672, 2682, 2633, 2653, 2650, 2645, 2629, 2646, 2637, 2674, 2638, 2655, 2625, 2688, 2666, 2646, 2639, 2695, 2684, 2671, 2661, 2708, 2634, 2613, 2663, 2635, 2634, 2628, 2640, 2650, 2631, 2628, 2633, 2607, 2648, 2644, 2641, 2584, 2623, 2620, 2647, 2622, 2639, 2626, 2669, 2642, 2660, 2615, 2629, 2664, 2627, 2632, 2667, 2621, 2656, 2620, 2640, 2636, 2651, 2641, 2633, 2658, 2618, 2677, 2683, 2635, 2618, 2637, 2580, 2666, 2634, 2600, 2608, 2628, 2636, 2623, 2638, 2640, 2616, 2640, 2673, 2586, 2631, 2629, 2651, 2613, 2603, 2600, 2685, 2676, 2609, 2635, 2661, 2663, 2662, 2700, 2613, 2610, 2605, 2660, 2626, 2644, 2619, 2607, 2638, 2645, 2665, 2586, 2584, 2616, 2679, 2617, 2610, 2596, 2674, 2609, 2611, 2654, 2653, 2671, 2615, 2628, 2659, 2622, 2626, 2614, 2605, 2645, 2594, 2600, 2590, 2628, 2600, 2596, 2620, 2633, 2604, 2572, 2611, 2627, 2619, 2605, 2688, 2633, 2630, 2609, 2612, 2611, 2584, 2688, 2646, 2611, 2608, 2663, 2631, 2608, 2622, 2632, 2602, 2652, 2641, 2632, 2605, 2622, 2717, 2657, 2655, 2632, 2588, 2708, 2653, 2609, 2595, 2658, 2631, 2622],
      "WindowCenter": [441.0, 440.0, 440.0, 439.0, 439.0, 439.0, 439.0, 439.0, 439.0, 439.0, 439.0, 438.0, 438.0, 438.0, 439.0, 439.0, 438.0, 439.0, 439.0, 439.0, 440.0, 441.0, 443.0, 443.0, 443.0, 441.0, 440.0, 439.0, 438.0, 438.0, 438.0, 438.0, 439.0, 440.0, 440.0, 440.0, 440.0, 440.0, 440.0, 440.0, 440.0, 440.0, 440.0, 439.0, 439.0, 439.0, 439.0, 440.0, 440.0, 441.0, 441.0, 440.0, 440.0, 440.0, 440.0, 439.0, 440.0, 440.0, 440.0, 440.0, 440.0, 440.0, 440.0, 440.0, 440.0, 440.0, 440.0, 440.0, 441.0, 440.0, 440.0, 440.0, 440.0, 441.0, 441.0, 441.0, 440.0, 441.0, 441.0, 440.0, 440.0, 441.0, 441.0, 441.0, 441.0, 440.0, 440.0, 439.0, 439.0, 439.0, 438.0, 439.0, 439.0, 439.0, 439.0, 439.0, 440.0, 440.0, 440.0, 441.0, 440.0, 439.0, 439.0, 439.0, 439.0, 440.0, 439.0, 440.0, 441.0, 441.0, 440.0, 440.0, 441.0, 440.0, 440.0, 440.0, 440.0, 439.0, 439.0, 440.0, 440.0, 441.0, 441.0, 441.0, 441.0, 440.0, 439.0, 439.0, 439.0, 439.0, 439.0, 441.0, 441.0, 441.0, 441.0, 440.0, 440.0, 440.0, 441.0, 441.0, 441.0, 440.0, 440.0, 439.0, 438.0, 438.0, 438.0, 439.0, 439.0, 440.0, 440.0, 440.0, 440.0, 439.0, 440.0, 439.0, 439.0, 440.0, 440.0, 442.0, 442.0, 443.0, 442.0, 441.0, 439.0, 439.0, 438.0, 439.0, 439.0, 441.0, 440.0, 441.0, 441.0, 442.0, 441.0, 441.0, 440.0, 439.0, 440.0, 440.0, 441.0, 440.0, 440.0, 439.0, 438.0, 438.0, 438.0, 437.0, 438.0, 439.0, 439.0, 438.0, 439.0, 439.0, 439.0, 439.0, 439.0, 439.0, 439.0, 439.0, 439.0, 439.0, 439.0, 439.0, 439.0, 439.0, 439.0, 440.0, 441.0, 441.0, 440.0, 440.0, 439.0, 439.0, 439.0, 440.0, 440.0, 441.0, 441.0, 441.0, 441.0, 441.0, 440.0, 440.0, 438.0, 437.0, 437.0, 438.0, 439.0, 441.0, 441.0, 441.0, 440.0, 440.0, 440.0, 439.0, 441.0, 441.0, 440.0, 438.0, 438.0, 438.0, 438.0, 438.0, 438.0, 439.0, 441.0, 441.0, 440.0, 441.0, 439.0, 438.0, 438.0, 438.0, 437.0, 437.0, 439.0, 439.0, 440.0, 440.0, 439.0, 438.0, 438.0, 438.0, 439.0, 438.0, 438.0, 438.0, 439.0, 438.0, 439.0, 439.0, 439.0, 439.0, 439.0, 439.0, 439.0, 438.0, 438.0, 439.0, 439.0, 438.0, 438.0, 439.0, 438.0, 438.0, 438.0, 438.0, 439.0, 439.0, 439.0, 439.0, 439.0, 439.0, 440.0, 439.0, 439.0, 438.0, 438.0, 438.0, 438.0, 439.0, 439.0, 440.0, 441.0, 441.0, 441.0, 441.0, 441.0, 439.0, 439.0, 438.0, 438.0, 439.0, 439.0, 440.0, 439.0, 439.0, 440.0, 439.0, 438.0, 439.0, 440.0, 440.0, 439.0, 438.0, 437.0, 438.0, 437.0, 438.0],
