{
  "AcquisitionMatrixPE": 104,
  "AcquisitionNumber": 1,
  "AcquisitionTime": "12:59:28.427500",
  "BandwidthPerPixelPhaseEncode": 43.054,
  "BaseResolution": 104,
  "CoilString": "C:E1_2",
  "ConversionSoftware": "dcm2niix",
  "ConversionSoftwareVersion": "v1.0.20191031",
  "DerivedVendorReportedEchoSpacing": 0.000669999,
  "DeviceSerialNumber": "18932",
  "DwellTime": 2.8e-06,
  "EchoTime": 0.02,
  "EffectiveEchoSpacing": 0.000223333,
  "FlipAngle": 30,
  "ImageComments": "Unaliased_MB2_PE2",
  "ImageOrientationPatientDICOM": [1, 2e-16, 0, -2e-16, 0.961741, -0.273959],
  "ImageType": [
    "ORIGINAL",
    "PRIMARY",
    "M",
    "MB",
    "ND",
    "MOSAIC"
],
  "ImagingFrequency": 297.229,
  "InPlanePhaseEncodingDirectionDICOM": "COL",
  "InstitutionAddress": "Richmond_Street_North_1151_London_409EF2_Ontario_CA_N6A_5B7",
  "InstitutionName": "Robarts_Reserch_Institute",
  "InstitutionalDepartmentName": "Department",
  "MRAcquisitionType": "2D",
  "MagneticFieldStrength": 6.98,
  "Manufacturer": "Siemens",
  "ManufacturersModelName": "Investigational_Device_7T",
  "Modality": "MR",
  "MultibandAccelerationFactor": 2,
  "ParallelReductionFactorInPlane": 3,
  "PartialFourier": 0.875,
  "PatientPosition": "HFS",
  "PercentPhaseFOV": 100,
  "PhaseEncodingDirection": "j-",
  "PhaseEncodingSteps": 91,
  "PhaseResolution": 1,
  "PixelBandwidth": 1717,
  "ProcedureStepDescription": "Diedrichsen_SeqRep4",
  "ProtocolName": "mbep2d_bold_mb2_p3_AP_2iso",
  "PulseSequenceDetails": "%CustomerSeq%_cmrr_mbep2d_bold",
  "ReceiveCoilName": "CFMM_8Tx32Rx",
  "ReconMatrixPE": 104,
  "RefLinesPE": 36,
  "RepetitionTime": 1,
  "ScanOptions": "PFP_FS",
  "ScanningSequence": "EP",
  "SequenceName": "epfid2d1_104",
  "SequenceVariant": "SK_SS",
  "SeriesDescription": "mbep2d_bold_mb2_p3_AP_2iso",
  "SeriesNumber": 17,
  "ShimSetting": [29, 2057, 86, 1756, 53, 131, 355, -110],
  "SliceThickness": 2,
  "SliceTiming": [0, 0.2275, 0.455, 0.6825, 0.9125, 0.1375, 0.365, 0.5925, 0.82, 0.045, 0.2725, 0.5, 0.73, 0.9575, 0.1825, 0.41, 0.6375, 0.865, 0.09, 0.32, 0.5475, 0.775, 0, 0.2275, 0.455, 0.6825, 0.9125, 0.1375, 0.365, 0.5925, 0.82, 0.045, 0.2725, 0.5, 0.73, 0.9575, 0.1825, 0.41, 0.6375, 0.865, 0.09, 0.32, 0.5475, 0.775],
  "SoftwareVersions": "syngo_MR_B17",
  "SpacingBetweenSlices": 2,
  "StationName": "MASTER",
  "TaskName": "dsp",
  "TotalReadoutTime": 0.0230033,
  "TxRefAmp": 120,
  "dcmmeta_affine": [
    [-2.0, -4.000000067449534e-16, 1.0958368979349813e-16, 105.4527816772461],
    [-4.000000067449534e-16, 1.9234826564788818, -0.547918438911438, -102.30016326904297],
    [0.0, 0.547918438911438, 1.9234826564788818, -44.65082550048828],
    [0.0, 0.0, 0.0, 1.0]
],
  "dcmmeta_reorient_transform": [
    [0.0, -1.0, 0.0, 103.0],
    [1.0, 0.0, 0.0, 0.0],
    [0.0, 0.0, 1.0, 0.0],
    [0.0, 0.0, 0.0, 1.0]
],
  "dcmmeta_shape": [104, 104, 44, 330],
  "dcmmeta_slice_dim": 2,
  "dcmmeta_version": 0.6,
  "global": {
    "const": {
      "AcquisitionMatrix": [104, 0, 0, 104],
      "AngioFlag": "N",
      "BitsAllocated": 16,
      "BitsStored": 12,
      "Columns": 728,
      "EchoNumbers": 1,
      "EchoTime": 20.0,
      "EchoTrainLength": 1,
      "FlipAngle": 30.0,
      "HighBit": 11,
      "ImageOrientationPatient": [1.0, 2e-16, 0.0, -2e-16, 0.96174130993141, -0.2739592173507],
      "ImagePositionPatient": [-729.45278453827, -695.94512226517, 182.73532666503],
      "ImageType": [
        "ORIGINAL",
        "PRIMARY",
        "M",
        "MB",
        "ND",
        "MOSAIC"
],
      "ImagedNucleus": "1H",
      "ImagingFrequency": 297.228777,
      "InPlanePhaseEncodingDirection": "COL",
      "MRAcquisitionType": "2D",
      "MagneticFieldStrength": 6.98,
      "Manufacturer": "SIEMENS",
      "ManufacturerModelName": "Investigational_Device_7T",
      "Modality": "MR",
      "NumberOfAverages": 1.0,
      "NumberOfPhaseEncodingSteps": 91,
      "PercentPhaseFieldOfView": 100.0,
      "PercentSampling": 100.0,
      "PerformedProcedureStepStartTime": "122510.093000",
      "PhotometricInterpretation": "MONOCHROME2",
      "PixelBandwidth": 1717.0,
      "PixelRepresentation": 0,
      "PixelSpacing": [2.0, 2.0],
      "ProtocolName": "mbep2d_bold_mb2_p3_AP 2iso",
      "RepetitionTime": 1000.0,
      "Rows": 728,
      "SAR": 0.0,
      "SamplesPerPixel": 1,
      "ScanOptions": [
        "PFP",
        "FS"
],
      "ScanningSequence": "EP",
      "SequenceName": "epfid2d1_104",
      "SequenceVariant": [
        "SK",
        "SS"
],
      "SeriesDescription": "mbep2d_bold_mb2_p3_AP 2iso",
      "SeriesNumber": 17,
      "SeriesTime": "125956.562000",
      "SliceLocation": -14.916468577237,
      "SliceThickness": 2.0,
      "SmallestImagePixelValue": 0,
      "SoftwareVersions": "syngo MR B17",
      "SpacingBetweenSlices": 2.0000000104656,
      "SpecificCharacterSet": "ISO_IR 100",
      "StudyID": "1",
      "StudyTime": "122510.031000",
      "TransmitCoilName": "CFMM_8Tx32Rx",
      "VariableFlipAngleFlag": "N",
      "WindowCenterWidthExplanation": "Algo1",
      "dBdt": 0.0},
    "slices": {}
  },
  "time": {
    "samples": {
      "AcquisitionNumber": [1, 2, 3, 4, 5, 6, 7, 8, 9, 10, 11, 12, 13, 14, 15, 16, 17, 18, 19, 20, 21, 22, 23, 24, 25, 26, 27, 28, 29, 30, 31, 32, 33, 34, 35, 36, 37, 38, 39, 40, 41, 42, 43, 44, 45, 46, 47, 48, 49, 50, 51, 52, 53, 54, 55, 56, 57, 58, 59, 60, 61, 62, 63, 64, 65, 66, 67, 68, 69, 70, 71, 72, 73, 74, 75, 76, 77, 78, 79, 80, 81, 82, 83, 84, 85, 86, 87, 88, 89, 90, 91, 92, 93, 94, 95, 96, 97, 98, 99, 100, 101, 102, 103, 104, 105, 106, 107, 108, 109, 110, 111, 112, 113, 114, 115, 116, 117, 118, 119, 120, 121, 122, 123, 124, 125, 126, 127, 128, 129, 130, 131, 132, 133, 134, 135, 136, 137, 138, 139, 140, 141, 142, 143, 144, 145, 146, 147, 148, 149, 150, 151, 152, 153, 154, 155, 156, 157, 158, 159, 160, 161, 162, 163, 164, 165, 166, 167, 168, 169, 170, 171, 172, 173, 174, 175, 176, 177, 178, 179, 180, 181, 182, 183, 184, 185, 186, 187, 188, 189, 190, 191, 192, 193, 194, 195, 196, 197, 198, 199, 200, 201, 202, 203, 204, 205, 206, 207, 208, 209, 210, 211, 212, 213, 214, 215, 216, 217, 218, 219, 220, 221, 222, 223, 224, 225, 226, 227, 228, 229, 230, 231, 232, 233, 234, 235, 236, 237, 238, 239, 240, 241, 242, 243, 244, 245, 246, 247, 248, 249, 250, 251, 252, 253, 254, 255, 256, 257, 258, 259, 260, 261, 262, 263, 264, 265, 266, 267, 268, 269, 270, 271, 272, 273, 274, 275, 276, 277, 278, 279, 280, 281, 282, 283, 284, 285, 286, 287, 288, 289, 290, 291, 292, 293, 294, 295, 296, 297, 298, 299, 300, 301, 302, 303, 304, 305, 306, 307, 308, 309, 310, 311, 312, 313, 314, 315, 316, 317, 318, 319, 320, 321, 322, 323, 324, 325, 326, 327, 328, 329, 330],
      "AcquisitionTime": ["125928.427500", "125929.430000", "125930.435000", "125931.440000", "125932.442500", "125933.447500", "125934.450000", "125935.455000", "125936.460000", "125937.462500", "125938.467500", "125939.470000", "125940.475000", "125941.480000", "125942.482500", "125943.487500", "125944.490000", "125945.495000", "125946.500000", "125947.502500", "125948.507500", "125949.512500", "125950.515000", "125951.520000", "125952.522500", "125953.527500", "125954.532500", "125955.535000", "125956.540000", "125957.542500", "125958.547500", "125959.552500", "130000.555000", "130001.560000", "130002.562500", "130003.567500", "130004.572500", "130005.575000", "130006.580000", "130007.582500", "130008.587500", "130009.592500", "130010.595000", "130011.600000", "130012.602500", "130013.607500", "130014.612500", "130015.615000", "130016.620000", "130017.625000", "130018.627500", "130019.632500", "130020.635000", "130021.640000", "130022.645000", "130023.647500", "130024.652500", "130025.655000", "130026.660000", "130027.665000", "130028.667500", "130029.672500", "130030.675000", "130031.680000", "130032.685000", "130033.687500", "130034.692500", "130035.695000", "130036.700000", "130037.705000", "130038.707500", "130039.712500", "130040.715000", "130041.720000", "130042.725000", "130043.727500", "130044.732500", "130045.735000", "130046.740000", "130047.745000", "130048.747500", "130049.752500", "130050.757500", "130051.760000", "130052.765000", "130053.767500", "130054.772500", "130055.777500", "130056.780000", "130057.785000", "130058.787500", "130059.792500", "130100.797500", "130101.800000", "130102.805000", "130103.807500", "130104.812500", "130105.817500", "130106.820000", "130107.825000", "130108.827500", "130109.832500", "130110.837500", "130111.840000", "130112.845000", "130113.847500", "130114.852500", "130115.857500", "130116.860000", "130117.865000", "130118.870000", "130119.872500", "130120.877500", "130121.880000", "130122.885000", "130123.890000", "130124.892500", "130125.897500", "130126.900000", "130127.905000", "130128.910000", "130129.912500", "130130.917500", "130131.920000", "130132.925000", "130133.930000", "130134.932500", "130135.937500", "130136.940000", "130137.945000", "130138.950000", "130139.952500", "130140.957500", "130141.960000", "130142.965000", "130143.970000", "130144.972500", "130145.977500", "130146.980000", "130147.985000", "130148.990000", "130149.992500", "130150.997500", "130152.002500", "130153.005000", "130154.010000", "130155.012500", "130156.017500", "130157.022500", "130158.025000", "130159.030000", "130200.032500", "130201.037500", "130202.042500", "130203.045000", "130204.050000", "130205.052500", "130206.057500", "130207.062500", "130208.065000", "130209.070000", "130210.072500", "130211.077500", "130212.082500", "130213.085000", "130214.090000", "130215.092500", "130216.097500", "130217.102500", "130218.105000", "130219.110000", "130220.112500", "130221.117500", "130222.122500", "130223.125000", "130224.130000", "130225.135000", "130226.137500", "130227.142500", "130228.145000", "130229.150000", "130230.155000", "130231.157500", "130232.162500", "130233.165000", "130234.170000", "130235.175000", "130236.177500", "130237.182500", "130238.185000", "130239.190000", "130240.195000", "130241.197500", "130242.202500", "130243.205000", "130244.210000", "130245.215000", "130246.217500", "130247.222500", "130248.225000", "130249.230000", "130250.235000", "130251.237500", "130252.242500", "130253.247500", "130254.250000", "130255.255000", "130256.257500", "130257.262500", "130258.267500", "130259.270000", "130300.275000", "130301.277500", "130302.282500", "130303.287500", "130304.290000", "130305.295000", "130306.297500", "130307.302500", "130308.307500", "130309.310000", "130310.315000", "130311.317500", "130312.322500", "130313.327500", "130314.330000", "130315.335000", "130316.337500", "130317.342500", "130318.347500", "130319.350000", "130320.355000", "130321.357500", "130322.362500", "130323.367500", "130324.370000", "130325.375000", "130326.380000", "130327.382500", "130328.387500", "130329.390000", "130330.395000", "130331.400000", "130332.402500", "130333.407500", "130334.410000", "130335.415000", "130336.420000", "130337.422500", "130338.427500", "130339.430000", "130340.435000", "130341.440000", "130342.442500", "130343.447500", "130344.450000", "130345.455000", "130346.460000", "130347.462500", "130348.467500", "130349.470000", "130350.475000", "130351.480000", "130352.482500", "130353.487500", "130354.490000", "130355.495000", "130356.500000", "130357.502500", "130358.507500", "130359.512500", "130400.515000", "130401.520000", "130402.522500", "130403.527500", "130404.532500", "130405.535000", "130406.540000", "130407.542500", "130408.547500", "130409.552500", "130410.555000", "130411.560000", "130412.562500", "130413.567500", "130414.572500", "130415.575000", "130416.580000", "130417.582500", "130418.587500", "130419.592500", "130420.595000", "130421.600000", "130422.602500", "130423.607500", "130424.612500", "130425.615000", "130426.620000", "130427.625000", "130428.627500", "130429.632500", "130430.635000", "130431.640000", "130432.645000", "130433.647500", "130434.652500", "130435.655000", "130436.660000", "130437.665000", "130438.667500", "130439.672500", "130440.675000", "130441.680000", "130442.685000", "130443.687500", "130444.692500", "130445.695000", "130446.700000", "130447.705000", "130448.707500", "130449.712500", "130450.715000", "130451.720000", "130452.725000", "130453.727500", "130454.732500", "130455.735000", "130456.740000", "130457.745000", "130458.747500"],
      "ContentTime": ["125956.562000", "125956.578000", "125956.578000", "125956.578000", "125956.578000", "125956.578000", "125956.578000", "125956.578000", "125956.593000", "125956.593000", "125956.593000", "125956.593000", "125956.593000", "125956.593000", "125956.593000", "125956.609000", "125956.609000", "125956.609000", "125956.609000", "125956.609000", "125956.625000", "125956.625000", "125956.625000", "125956.625000", "125956.625000", "125956.625000", "125956.640000", "130016.531000", "130016.546000", "130016.546000", "130016.546000", "130016.546000", "130016.546000", "130016.546000", "130016.546000", "130016.562000", "130016.562000", "130016.562000", "130016.562000", "130016.562000", "130016.562000", "130016.562000", "130016.562000", "130016.578000", "130016.578000", "130016.578000", "130016.578000", "130036.531000", "130036.546000", "130036.546000", "130036.546000", "130036.546000", "130036.546000", "130036.562000", "130036.562000", "130036.562000", "130036.562000", "130036.562000", "130036.562000", "130036.562000", "130036.578000", "130036.578000", "130036.578000", "130036.578000", "130036.578000", "130036.578000", "130036.578000", "130056.531000", "130056.546000", "130056.546000", "130056.546000", "130056.546000", "130056.546000", "130056.562000", "130056.562000", "130056.562000", "130056.562000", "130056.562000", "130056.562000", "130056.578000", "130056.578000", "130056.578000", "130056.578000", "130056.578000", "130056.578000", "130056.578000", "130056.593000", "130116.531000", "130116.546000", "130116.546000", "130116.546000", "130116.546000", "130116.546000", "130116.546000", "130116.546000", "130116.562000", "130116.562000", "130116.562000", "130116.562000", "130116.562000", "130116.578000", "130116.578000", "130116.578000", "130116.593000", "130116.593000", "130116.593000", "130116.593000", "130136.531000", "130136.546000", "130136.546000", "130136.546000", "130136.546000", "130136.546000", "130136.546000", "130136.546000", "130136.562000", "130136.562000", "130136.562000", "130136.562000", "130136.562000", "130136.562000", "130136.562000", "130136.578000", "130136.578000", "130136.578000", "130136.578000", "130136.578000", "130156.531000", "130156.546000", "130156.546000", "130156.546000", "130156.546000", "130156.562000", "130156.562000", "130156.562000", "130156.562000", "130156.562000", "130156.562000", "130156.578000", "130156.578000", "130156.578000", "130156.578000", "130156.593000", "130156.593000", "130156.593000", "130156.593000", "130156.593000", "130216.531000", "130216.546000", "130216.546000", "130216.546000", "130216.546000", "130216.562000", "130216.562000", "130216.562000", "130216.562000", "130216.562000", "130216.562000", "130216.562000", "130216.562000", "130216.578000", "130216.578000", "130216.578000", "130216.578000", "130216.578000", "130216.593000", "130216.593000", "130236.531000", "130236.546000", "130236.546000", "130236.562000", "130236.562000", "130236.562000", "130236.562000", "130236.562000", "130236.562000", "130236.562000", "130236.578000", "130236.578000", "130236.578000", "130236.578000", "130236.578000", "130236.578000", "130236.593000", "130236.593000", "130236.593000", "130236.593000", "130256.531000", "130256.546000", "130256.546000", "130256.546000", "130256.546000", "130256.546000", "130256.562000", "130256.562000", "130256.562000", "130256.562000", "130256.562000", "130256.562000", "130256.562000", "130256.578000", "130256.578000", "130256.578000", "130256.578000", "130256.578000", "130256.578000", "130256.578000", "130316.531000", "130316.546000", "130316.546000", "130316.546000", "130316.546000", "130316.562000", "130316.562000", "130316.578000", "130316.578000", "130316.578000", "130316.578000", "130316.578000", "130316.578000", "130316.593000", "130316.593000", "130316.593000", "130316.593000", "130316.593000", "130316.609000", "130316.609000", "130336.531000", "130336.546000", "130336.546000", "130336.546000", "130336.546000", "130336.546000", "130336.562000", "130336.562000", "130336.562000", "130336.562000", "130336.562000", "130336.562000", "130336.578000", "130336.578000", "130336.578000", "130336.578000", "130336.578000", "130336.578000", "130336.593000", "130336.593000", "130356.531000", "130356.546000", "130356.546000", "130356.546000", "130356.546000", "130356.546000", "130356.546000", "130356.546000", "130356.562000", "130356.562000", "130356.562000", "130356.562000", "130356.562000", "130356.562000", "130356.562000", "130356.578000", "130356.578000", "130356.578000", "130356.578000", "130356.578000", "130416.531000", "130416.546000", "130416.546000", "130416.546000", "130416.546000", "130416.546000", "130416.546000", "130416.546000", "130416.562000", "130416.562000", "130416.562000", "130416.562000", "130416.562000", "130416.562000", "130416.562000", "130416.562000", "130416.578000", "130416.578000", "130416.578000", "130416.578000", "130436.531000", "130436.546000", "130436.546000", "130436.546000", "130436.546000", "130436.562000", "130436.562000", "130436.562000", "130436.562000", "130436.562000", "130436.562000", "130436.562000", "130436.578000", "130436.578000", "130436.578000", "130436.578000", "130436.578000", "130436.578000", "130436.578000", "130436.578000", "130456.531000", "130456.546000", "130456.546000", "130456.546000", "130456.546000", "130456.546000", "130456.546000", "130456.546000", "130456.546000", "130456.562000", "130456.562000", "130456.562000", "130456.562000", "130456.562000", "130456.562000", "130456.562000", "130456.578000", "130456.578000", "130456.578000", "130456.578000", "130504.250000", "130504.250000", "130504.250000"],
      "InstanceCreationTime": ["125956.562000", "125956.578000", "125956.578000", "125956.578000", "125956.578000", "125956.578000", "125956.578000", "125956.578000", "125956.593000", "125956.593000", "125956.593000", "125956.593000", "125956.593000", "125956.593000", "125956.593000", "125956.609000", "125956.609000", "125956.609000", "125956.609000", "125956.609000", "125956.625000", "125956.625000", "125956.625000", "125956.625000", "125956.625000", "125956.625000", "125956.640000", "130016.531000", "130016.546000", "130016.546000", "130016.546000", "130016.546000", "130016.546000", "130016.546000", "130016.546000", "130016.562000", "130016.562000", "130016.562000", "130016.562000", "130016.562000", "130016.562000", "130016.562000", "130016.562000", "130016.578000", "130016.578000", "130016.578000", "130016.578000", "130036.531000", "130036.546000", "130036.546000", "130036.546000", "130036.546000", "130036.546000", "130036.562000", "130036.562000", "130036.562000", "130036.562000", "130036.562000", "130036.562000", "130036.562000", "130036.578000", "130036.578000", "130036.578000", "130036.578000", "130036.578000", "130036.578000", "130036.578000", "130056.531000", "130056.546000", "130056.546000", "130056.546000", "130056.546000", "130056.546000", "130056.562000", "130056.562000", "130056.562000", "130056.562000", "130056.562000", "130056.562000", "130056.578000", "130056.578000", "130056.578000", "130056.578000", "130056.578000", "130056.578000", "130056.578000", "130056.593000", "130116.531000", "130116.546000", "130116.546000", "130116.546000", "130116.546000", "130116.546000", "130116.546000", "130116.546000", "130116.562000", "130116.562000", "130116.562000", "130116.562000", "130116.562000", "130116.578000", "130116.578000", "130116.578000", "130116.593000", "130116.593000", "130116.593000", "130116.593000", "130136.531000", "130136.546000", "130136.546000", "130136.546000", "130136.546000", "130136.546000", "130136.546000", "130136.546000", "130136.562000", "130136.562000", "130136.562000", "130136.562000", "130136.562000", "130136.562000", "130136.562000", "130136.578000", "130136.578000", "130136.578000", "130136.578000", "130136.578000", "130156.531000", "130156.546000", "130156.546000", "130156.546000", "130156.546000", "130156.562000", "130156.562000", "130156.562000", "130156.562000", "130156.562000", "130156.562000", "130156.578000", "130156.578000", "130156.578000", "130156.578000", "130156.593000", "130156.593000", "130156.593000", "130156.593000", "130156.593000", "130216.531000", "130216.546000", "130216.546000", "130216.546000", "130216.546000", "130216.562000", "130216.562000", "130216.562000", "130216.562000", "130216.562000", "130216.562000", "130216.562000", "130216.562000", "130216.578000", "130216.578000", "130216.578000", "130216.578000", "130216.578000", "130216.593000", "130216.593000", "130236.531000", "130236.546000", "130236.546000", "130236.562000", "130236.562000", "130236.562000", "130236.562000", "130236.562000", "130236.562000", "130236.562000", "130236.578000", "130236.578000", "130236.578000", "130236.578000", "130236.578000", "130236.578000", "130236.593000", "130236.593000", "130236.593000", "130236.593000", "130256.531000", "130256.546000", "130256.546000", "130256.546000", "130256.546000", "130256.546000", "130256.562000", "130256.562000", "130256.562000", "130256.562000", "130256.562000", "130256.562000", "130256.562000", "130256.578000", "130256.578000", "130256.578000", "130256.578000", "130256.578000", "130256.578000", "130256.578000", "130316.531000", "130316.546000", "130316.546000", "130316.546000", "130316.546000", "130316.562000", "130316.562000", "130316.578000", "130316.578000", "130316.578000", "130316.578000", "130316.578000", "130316.578000", "130316.593000", "130316.593000", "130316.593000", "130316.593000", "130316.593000", "130316.609000", "130316.609000", "130336.531000", "130336.546000", "130336.546000", "130336.546000", "130336.546000", "130336.546000", "130336.562000", "130336.562000", "130336.562000", "130336.562000", "130336.562000", "130336.562000", "130336.578000", "130336.578000", "130336.578000", "130336.578000", "130336.578000", "130336.578000", "130336.593000", "130336.593000", "130356.531000", "130356.546000", "130356.546000", "130356.546000", "130356.546000", "130356.546000", "130356.546000", "130356.546000", "130356.562000", "130356.562000", "130356.562000", "130356.562000", "130356.562000", "130356.562000", "130356.562000", "130356.578000", "130356.578000", "130356.578000", "130356.578000", "130356.578000", "130416.531000", "130416.546000", "130416.546000", "130416.546000", "130416.546000", "130416.546000", "130416.546000", "130416.546000", "130416.562000", "130416.562000", "130416.562000", "130416.562000", "130416.562000", "130416.562000", "130416.562000", "130416.562000", "130416.578000", "130416.578000", "130416.578000", "130416.578000", "130436.531000", "130436.546000", "130436.546000", "130436.546000", "130436.546000", "130436.562000", "130436.562000", "130436.562000", "130436.562000", "130436.562000", "130436.562000", "130436.562000", "130436.578000", "130436.578000", "130436.578000", "130436.578000", "130436.578000", "130436.578000", "130436.578000", "130436.578000", "130456.531000", "130456.546000", "130456.546000", "130456.546000", "130456.546000", "130456.546000", "130456.546000", "130456.546000", "130456.546000", "130456.562000", "130456.562000", "130456.562000", "130456.562000", "130456.562000", "130456.562000", "130456.562000", "130456.578000", "130456.578000", "130456.578000", "130456.578000", "130504.250000", "130504.250000", "130504.250000"],
      "InstanceNumber": [1, 2, 3, 4, 5, 6, 7, 8, 9, 10, 11, 12, 13, 14, 15, 16, 17, 18, 19, 20, 21, 22, 23, 24, 25, 26, 27, 28, 29, 30, 31, 32, 33, 34, 35, 36, 37, 38, 39, 40, 41, 42, 43, 44, 45, 46, 47, 48, 49, 50, 51, 52, 53, 54, 55, 56, 57, 58, 59, 60, 61, 62, 63, 64, 65, 66, 67, 68, 69, 70, 71, 72, 73, 74, 75, 76, 77, 78, 79, 80, 81, 82, 83, 84, 85, 86, 87, 88, 89, 90, 91, 92, 93, 94, 95, 96, 97, 98, 99, 100, 101, 102, 103, 104, 105, 106, 107, 108, 109, 110, 111, 112, 113, 114, 115, 116, 117, 118, 119, 120, 121, 122, 123, 124, 125, 126, 127, 128, 129, 130, 131, 132, 133, 134, 135, 136, 137, 138, 139, 140, 141, 142, 143, 144, 145, 146, 147, 148, 149, 150, 151, 152, 153, 154, 155, 156, 157, 158, 159, 160, 161, 162, 163, 164, 165, 166, 167, 168, 169, 170, 171, 172, 173, 174, 175, 176, 177, 178, 179, 180, 181, 182, 183, 184, 185, 186, 187, 188, 189, 190, 191, 192, 193, 194, 195, 196, 197, 198, 199, 200, 201, 202, 203, 204, 205, 206, 207, 208, 209, 210, 211, 212, 213, 214, 215, 216, 217, 218, 219, 220, 221, 222, 223, 224, 225, 226, 227, 228, 229, 230, 231, 232, 233, 234, 235, 236, 237, 238, 239, 240, 241, 242, 243, 244, 245, 246, 247, 248, 249, 250, 251, 252, 253, 254, 255, 256, 257, 258, 259, 260, 261, 262, 263, 264, 265, 266, 267, 268, 269, 270, 271, 272, 273, 274, 275, 276, 277, 278, 279, 280, 281, 282, 283, 284, 285, 286, 287, 288, 289, 290, 291, 292, 293, 294, 295, 296, 297, 298, 299, 300, 301, 302, 303, 304, 305, 306, 307, 308, 309, 310, 311, 312, 313, 314, 315, 316, 317, 318, 319, 320, 321, 322, 323, 324, 325, 326, 327, 328, 329, 330],
      "LargestImagePixelValue": [2610, 2609, 2651, 2646, 2531, 2570, 2582, 2647, 2614, 2525, 2609, 2604, 2662, 2567, 2616, 2604, 2664, 2576, 2591, 2574, 2585, 2596, 2605, 2624, 2573, 2515, 2649, 2560, 2553, 2563, 2610, 2584, 2543, 2528, 2574, 2530, 2570, 2575, 2515, 2528, 2625, 2614, 2621, 2536, 2564, 2589, 2642, 2617, 2564, 2537, 2554, 2608, 2548, 2587, 2559, 2581, 2600, 2660, 2651, 2591, 2625, 2610, 2581, 2543, 2545, 2572, 2536, 2607, 2530, 2537, 2605, 2579, 2616, 2518, 2522, 2553, 2603, 2593, 2519, 2550, 2631, 2563, 2575, 2564, 2567, 2556, 2596, 2602, 2624, 2593, 2592, 2566, 2662, 2571, 2558, 2610, 2556, 2627, 2587, 2567, 2578, 2594, 2592, 2582, 2636, 2637, 2555, 2601, 2576, 2554, 2626, 2615, 2547, 2586, 2562, 2584, 2616, 2638, 2636, 2553, 2632, 2613, 2615, 2566, 2544, 2605, 2588, 2655, 2560, 2571, 2545, 2672, 2554, 2576, 2520, 2629, 2657, 2626, 2539, 2526, 2532, 2567, 2661, 2559, 2545, 2615, 2601, 2645, 2624, 2544, 2588, 2692, 2643, 2513, 2604, 2601, 2588, 2546, 2595, 2552, 2656, 2602, 2607, 2578, 2632, 2577, 2557, 2646, 2569, 2617, 2628, 2613, 2603, 2526, 2596, 2570, 2589, 2609, 2559, 2631, 2555, 2617, 2583, 2547, 2564, 2651, 2630, 2522, 2582, 2554, 2589, 2655, 2590, 2566, 2544, 2602, 2652, 2593, 2607, 2605, 2646, 2592, 2601, 2587, 2580, 2575, 2645, 2607, 2544, 2577, 2629, 2605, 2643, 2568, 2569, 2643, 2636, 2641, 2557, 2553, 2623, 2547, 2583, 2593, 2579, 2586, 2666, 2605, 2640, 2589, 2579, 2609, 2568, 2599, 2515, 2560, 2621, 2561, 2610, 2544, 2609, 2645, 2697, 2559, 2589, 2612, 2628, 2618, 2589, 2584, 2618, 2619, 2605, 2624, 2555, 2593, 2625, 2574, 2600, 2562, 2674, 2646, 2613, 2582, 2597, 2648, 2622, 2611, 2583, 2586, 2540, 2619, 2589, 2650, 2560, 2667, 2744, 2628, 2589, 2606, 2570, 2586, 2592, 2605, 2576, 2642, 2591, 2621, 2635, 2595, 2535, 2587, 2622, 2620, 2571, 2602, 2659, 2628, 2568, 2599, 2645, 2584, 2705, 2573, 2568, 2640, 2579, 2532, 2514, 2575, 2630, 2622, 2580, 2548, 2599, 2583, 2636, 2595, 2621, 2557, 2600, 2596, 2648, 2615, 2564, 2628, 2549, 2572, 2618, 2600],
      "WindowCenter": [445.0, 445.0, 444.0, 443.0, 443.0, 442.0, 442.0, 442.0, 442.0, 442.0, 442.0, 442.0, 443.0, 443.0, 443.0, 443.0, 444.0, 443.0, 443.0, 443.0, 444.0, 444.0, 444.0, 444.0, 444.0, 443.0, 444.0, 444.0, 443.0, 443.0, 444.0, 445.0, 445.0, 445.0, 446.0, 444.0, 444.0, 442.0, 441.0, 441.0, 442.0, 443.0, 444.0, 445.0, 445.0, 445.0, 445.0, 444.0, 442.0, 442.0, 442.0, 442.0, 441.0, 442.0, 442.0, 443.0, 444.0, 444.0, 444.0, 443.0, 443.0, 443.0, 442.0, 441.0, 442.0, 442.0, 442.0, 443.0, 442.0, 442.0, 442.0, 442.0, 443.0, 442.0, 442.0, 442.0, 444.0, 444.0, 444.0, 444.0, 444.0, 444.0, 444.0, 443.0, 442.0, 442.0, 444.0, 444.0, 445.0, 445.0, 444.0, 443.0, 443.0, 442.0, 442.0, 442.0, 442.0, 443.0, 443.0, 443.0, 443.0, 443.0, 443.0, 442.0, 444.0, 445.0, 444.0, 444.0, 443.0, 443.0, 443.0, 443.0, 442.0, 442.0, 442.0, 442.0, 443.0, 443.0, 443.0, 442.0, 443.0, 443.0, 443.0, 442.0, 441.0, 443.0, 443.0, 443.0, 443.0, 443.0, 444.0, 446.0, 445.0, 445.0, 443.0, 443.0, 444.0, 445.0, 444.0, 442.0, 442.0, 442.0, 442.0, 441.0, 441.0, 443.0, 444.0, 445.0, 446.0, 445.0, 444.0, 444.0, 444.0, 443.0, 443.0, 443.0, 443.0, 443.0, 443.0, 442.0, 443.0, 441.0, 442.0, 441.0, 442.0, 441.0, 442.0, 442.0, 442.0, 442.0, 443.0, 443.0, 443.0, 443.0, 444.0, 444.0, 444.0, 445.0, 444.0, 444.0, 443.0, 443.0, 443.0, 442.0, 443.0, 444.0, 445.0, 444.0, 444.0, 444.0, 444.0, 444.0, 444.0, 444.0, 444.0, 445.0, 444.0, 444.0, 443.0, 443.0, 443.0, 443.0, 444.0, 444.0, 444.0, 445.0, 444.0, 442.0, 441.0, 440.0, 441.0, 441.0, 443.0, 444.0, 445.0, 445.0, 445.0, 444.0, 444.0, 444.0, 443.0, 443.0, 444.0, 444.0, 445.0, 444.0, 444.0, 444.0, 444.0, 444.0, 444.0, 445.0, 445.0, 446.0, 445.0, 445.0, 444.0, 443.0, 443.0, 442.0, 442.0, 444.0, 445.0, 446.0, 446.0, 445.0, 445.0, 444.0, 443.0, 442.0, 442.0, 442.0, 444.0, 444.0, 444.0, 445.0, 445.0, 445.0, 444.0, 443.0, 443.0, 442.0, 442.0, 442.0, 444.0, 444.0, 444.0, 444.0, 444.0, 444.0, 444.0, 444.0, 444.0, 446.0, 445.0, 446.0, 446.0, 446.0, 445.0, 444.0, 443.0, 443.0, 443.0, 443.0, 443.0, 443.0, 442.0, 443.0, 443.0, 444.0, 445.0, 445.0, 445.0, 444.0, 444.0, 443.0, 444.0, 444.0, 444.0, 444.0, 444.0, 444.0, 444.0, 443.0, 442.0, 442.0, 442.0, 442.0, 442.0, 442.0, 444.0, 444.0, 444.0, 443.0, 444.0, 443.0, 443.0, 442.0, 442.0, 443.0, 443.0, 444.0, 444.0, 444.0, 443.0, 444.0, 443.0, 443.0, 443.0, 444.0],
