{
  "AcquisitionMatrixPE": 104,
  "AcquisitionNumber": 1,
  "AcquisitionTime": "12:39:48.525000",
  "BandwidthPerPixelPhaseEncode": 43.054,
  "BaseResolution": 104,
  "CoilString": "C:E1_2",
  "ConversionSoftware": "dcm2niix",
  "ConversionSoftwareVersion": "v1.0.20191031",
  "DerivedVendorReportedEchoSpacing": 0.000669999,
  "DeviceSerialNumber": "18932",
  "DwellTime": 2.8e-06,
  "EchoTime": 0.02,
  "EffectiveEchoSpacing": 0.000223333,
  "FlipAngle": 30,
  "ImageComments": "Unaliased_MB2_PE2",
  "ImageOrientationPatientDICOM": [1, 2e-16, 0, -2e-16, 0.961741, -0.273959],
  "ImageType": [
    "ORIGINAL",
    "PRIMARY",
    "M",
    "MB",
    "ND",
    "MOSAIC"
],
  "ImagingFrequency": 297.229,
  "InPlanePhaseEncodingDirectionDICOM": "COL",
  "InstitutionAddress": "Richmond_Street_North_1151_London_409EF2_Ontario_CA_N6A_5B7",
  "InstitutionName": "Robarts_Reserch_Institute",
  "InstitutionalDepartmentName": "Department",
  "MRAcquisitionType": "2D",
  "MagneticFieldStrength": 6.98,
  "Manufacturer": "Siemens",
  "ManufacturersModelName": "Investigational_Device_7T",
  "Modality": "MR",
  "MultibandAccelerationFactor": 2,
  "ParallelReductionFactorInPlane": 3,
  "PartialFourier": 0.875,
  "PatientPosition": "HFS",
  "PercentPhaseFOV": 100,
  "PhaseEncodingDirection": "j-",
  "PhaseEncodingSteps": 91,
  "PhaseResolution": 1,
  "PixelBandwidth": 1717,
  "ProcedureStepDescription": "Diedrichsen_SeqRep4",
  "ProtocolName": "mbep2d_bold_mb2_p3_AP_2iso",
  "PulseSequenceDetails": "%CustomerSeq%_cmrr_mbep2d_bold",
  "ReceiveCoilName": "CFMM_8Tx32Rx",
  "ReconMatrixPE": 104,
  "RefLinesPE": 36,
  "RepetitionTime": 1,
  "ScanOptions": "PFP_FS",
  "ScanningSequence": "EP",
  "SequenceName": "epfid2d1_104",
  "SequenceVariant": "SK_SS",
  "SeriesDescription": "mbep2d_bold_mb2_p3_AP_2iso",
  "SeriesNumber": 11,
  "ShimSetting": [29, 2057, 86, 1756, 53, 131, 355, -110],
  "SliceThickness": 2,
  "SliceTiming": [0, 0.2275, 0.455, 0.6825, 0.9125, 0.135, 0.365, 0.5925, 0.82, 0.045, 0.2725, 0.5, 0.73, 0.9575, 0.1825, 0.41, 0.6375, 0.865, 0.09, 0.3175, 0.5475, 0.775, 0, 0.2275, 0.455, 0.6825, 0.9125, 0.135, 0.365, 0.5925, 0.82, 0.045, 0.2725, 0.5, 0.73, 0.9575, 0.1825, 0.41, 0.6375, 0.865, 0.09, 0.3175, 0.5475, 0.775],
  "SoftwareVersions": "syngo_MR_B17",
  "SpacingBetweenSlices": 2,
  "StationName": "MASTER",
  "TaskName": "dsp",
  "TotalReadoutTime": 0.0230033,
  "TxRefAmp": 120,
  "dcmmeta_affine": [
    [-2.0, -4.000000067449534e-16, 1.0958368979349813e-16, 105.4527816772461],
    [-4.000000067449534e-16, 1.9234826564788818, -0.547918438911438, -102.30016326904297],
    [0.0, 0.547918438911438, 1.9234826564788818, -44.65082550048828],
    [0.0, 0.0, 0.0, 1.0]
],
  "dcmmeta_reorient_transform": [
    [0.0, -1.0, 0.0, 103.0],
    [1.0, 0.0, 0.0, 0.0],
    [0.0, 0.0, 1.0, 0.0],
    [0.0, 0.0, 0.0, 1.0]
],
  "dcmmeta_shape": [104, 104, 44, 330],
  "dcmmeta_slice_dim": 2,
  "dcmmeta_version": 0.6,
  "global": {
    "const": {
      "AcquisitionMatrix": [104, 0, 0, 104],
      "AngioFlag": "N",
      "BitsAllocated": 16,
      "BitsStored": 12,
      "Columns": 728,
      "EchoNumbers": 1,
      "EchoTime": 20.0,
      "EchoTrainLength": 1,
      "FlipAngle": 30.0,
      "HighBit": 11,
      "ImageOrientationPatient": [1.0, 2e-16, 0.0, -2e-16, 0.96174130993141, -0.2739592173507],
      "ImagePositionPatient": [-729.45278453827, -695.94512226517, 182.73532666503],
      "ImageType": [
        "ORIGINAL",
        "PRIMARY",
        "M",
        "MB",
        "ND",
        "MOSAIC"
],
      "ImagedNucleus": "1H",
      "ImagingFrequency": 297.228749,
      "InPlanePhaseEncodingDirection": "COL",
      "MRAcquisitionType": "2D",
      "MagneticFieldStrength": 6.98,
      "Manufacturer": "SIEMENS",
      "ManufacturerModelName": "Investigational_Device_7T",
      "Modality": "MR",
      "NumberOfAverages": 1.0,
      "NumberOfPhaseEncodingSteps": 91,
      "PercentPhaseFieldOfView": 100.0,
      "PercentSampling": 100.0,
      "PerformedProcedureStepStartTime": "122510.093000",
      "PhotometricInterpretation": "MONOCHROME2",
      "PixelBandwidth": 1717.0,
      "PixelRepresentation": 0,
      "PixelSpacing": [2.0, 2.0],
      "ProtocolName": "mbep2d_bold_mb2_p3_AP 2iso",
      "RepetitionTime": 1000.0,
      "Rows": 728,
      "SAR": 0.0,
      "SamplesPerPixel": 1,
      "ScanOptions": [
        "PFP",
        "FS"
],
      "ScanningSequence": "EP",
      "SequenceName": "epfid2d1_104",
      "SequenceVariant": [
        "SK",
        "SS"
],
      "SeriesDescription": "mbep2d_bold_mb2_p3_AP 2iso",
      "SeriesNumber": 11,
      "SeriesTime": "124016.578000",
      "SliceLocation": -14.916468577237,
      "SliceThickness": 2.0,
      "SmallestImagePixelValue": 0,
      "SoftwareVersions": "syngo MR B17",
      "SpacingBetweenSlices": 2.0000000104656,
      "SpecificCharacterSet": "ISO_IR 100",
      "StudyID": "1",
      "StudyTime": "122510.031000",
      "TransmitCoilName": "CFMM_8Tx32Rx",
      "VariableFlipAngleFlag": "N",
      "WindowCenterWidthExplanation": "Algo1",
      "dBdt": 0.0},
    "slices": {}
  },
  "time": {
    "samples": {
      "AcquisitionNumber": [1, 2, 3, 4, 5, 6, 7, 8, 9, 10, 11, 12, 13, 14, 15, 16, 17, 18, 19, 20, 21, 22, 23, 24, 25, 26, 27, 28, 29, 30, 31, 32, 33, 34, 35, 36, 37, 38, 39, 40, 41, 42, 43, 44, 45, 46, 47, 48, 49, 50, 51, 52, 53, 54, 55, 56, 57, 58, 59, 60, 61, 62, 63, 64, 65, 66, 67, 68, 69, 70, 71, 72, 73, 74, 75, 76, 77, 78, 79, 80, 81, 82, 83, 84, 85, 86, 87, 88, 89, 90, 91, 92, 93, 94, 95, 96, 97, 98, 99, 100, 101, 102, 103, 104, 105, 106, 107, 108, 109, 110, 111, 112, 113, 114, 115, 116, 117, 118, 119, 120, 121, 122, 123, 124, 125, 126, 127, 128, 129, 130, 131, 132, 133, 134, 135, 136, 137, 138, 139, 140, 141, 142, 143, 144, 145, 146, 147, 148, 149, 150, 151, 152, 153, 154, 155, 156, 157, 158, 159, 160, 161, 162, 163, 164, 165, 166, 167, 168, 169, 170, 171, 172, 173, 174, 175, 176, 177, 178, 179, 180, 181, 182, 183, 184, 185, 186, 187, 188, 189, 190, 191, 192, 193, 194, 195, 196, 197, 198, 199, 200, 201, 202, 203, 204, 205, 206, 207, 208, 209, 210, 211, 212, 213, 214, 215, 216, 217, 218, 219, 220, 221, 222, 223, 224, 225, 226, 227, 228, 229, 230, 231, 232, 233, 234, 235, 236, 237, 238, 239, 240, 241, 242, 243, 244, 245, 246, 247, 248, 249, 250, 251, 252, 253, 254, 255, 256, 257, 258, 259, 260, 261, 262, 263, 264, 265, 266, 267, 268, 269, 270, 271, 272, 273, 274, 275, 276, 277, 278, 279, 280, 281, 282, 283, 284, 285, 286, 287, 288, 289, 290, 291, 292, 293, 294, 295, 296, 297, 298, 299, 300, 301, 302, 303, 304, 305, 306, 307, 308, 309, 310, 311, 312, 313, 314, 315, 316, 317, 318, 319, 320, 321, 322, 323, 324, 325, 326, 327, 328, 329, 330],
      "AcquisitionTime": ["123948.525000", "123949.527500", "123950.532500", "123951.537500", "123952.540000", "123953.545000", "123954.547500", "123955.552500", "123956.557500", "123957.560000", "123958.565000", "123959.567500", "124000.572500", "124001.577500", "124002.580000", "124003.585000", "124004.587500", "124005.592500", "124006.597500", "124007.600000", "124008.605000", "124009.607500", "124010.612500", "124011.617500", "124012.620000", "124013.625000", "124014.630000", "124015.632500", "124016.637500", "124017.640000", "124018.645000", "124019.650000", "124020.652500", "124021.657500", "124022.660000", "124023.665000", "124024.670000", "124025.672500", "124026.677500", "124027.680000", "124028.685000", "124029.690000", "124030.692500", "124031.697500", "124032.700000", "124033.705000", "124034.710000", "124035.712500", "124036.717500", "124037.720000", "124038.725000", "124039.730000", "124040.732500", "124041.737500", "124042.740000", "124043.745000", "124044.750000", "124045.752500", "124046.757500", "124047.762500", "124048.765000", "124049.770000", "124050.772500", "124051.777500", "124052.782500", "124053.785000", "124054.790000", "124055.792500", "124056.797500", "124057.802500", "124058.805000", "124059.810000", "124100.812500", "124101.817500", "124102.822500", "124103.825000", "124104.830000", "124105.832500", "124106.837500", "124107.842500", "124108.845000", "124109.850000", "124110.852500", "124111.857500", "124112.862500", "124113.865000", "124114.870000", "124115.872500", "124116.877500", "124117.882500", "124118.885000", "124119.890000", "124120.895000", "124121.897500", "124122.902500", "124123.905000", "124124.910000", "124125.915000", "124126.917500", "124127.922500", "124128.925000", "124129.930000", "124130.935000", "124131.937500", "124132.942500", "124133.945000", "124134.950000", "124135.955000", "124136.957500", "124137.962500", "124138.965000", "124139.970000", "124140.975000", "124141.977500", "124142.982500", "124143.985000", "124144.990000", "124145.995000", "124146.997500", "124148.002500", "124149.007500", "124150.010000", "124151.015000", "124152.017500", "124153.022500", "124154.027500", "124155.030000", "124156.035000", "124157.037500", "124158.042500", "124159.047500", "124200.050000", "124201.055000", "124202.057500", "124203.062500", "124204.067500", "124205.070000", "124206.075000", "124207.077500", "124208.082500", "124209.087500", "124210.090000", "124211.095000", "124212.097500", "124213.102500", "124214.107500", "124215.110000", "124216.115000", "124217.117500", "124218.122500", "124219.127500", "124220.130000", "124221.135000", "124222.140000", "124223.142500", "124224.147500", "124225.150000", "124226.155000", "124227.160000", "124228.162500", "124229.167500", "124230.170000", "124231.175000", "124232.180000", "124233.182500", "124234.187500", "124235.190000", "124236.195000", "124237.200000", "124238.202500", "124239.207500", "124240.210000", "124241.215000", "124242.220000", "124243.222500", "124244.227500", "124245.230000", "124246.235000", "124247.240000", "124248.242500", "124249.247500", "124250.252500", "124251.255000", "124252.260000", "124253.262500", "124254.267500", "124255.272500", "124256.275000", "124257.280000", "124258.282500", "124259.287500", "124300.292500", "124301.295000", "124302.300000", "124303.302500", "124304.307500", "124305.312500", "124306.315000", "124307.320000", "124308.322500", "124309.327500", "124310.332500", "124311.335000", "124312.340000", "124313.342500", "124314.347500", "124315.352500", "124316.355000", "124317.360000", "124318.362500", "124319.367500", "124320.372500", "124321.375000", "124322.380000", "124323.385000", "124324.387500", "124325.392500", "124326.395000", "124327.400000", "124328.405000", "124329.407500", "124330.412500", "124331.415000", "124332.420000", "124333.425000", "124334.427500", "124335.432500", "124336.435000", "124337.440000", "124338.445000", "124339.447500", "124340.452500", "124341.455000", "124342.460000", "124343.465000", "124344.467500", "124345.472500", "124346.475000", "124347.480000", "124348.485000", "124349.487500", "124350.492500", "124351.495000", "124352.500000", "124353.505000", "124354.507500", "124355.512500", "124356.517500", "124357.520000", "124358.525000", "124359.527500", "124400.532500", "124401.537500", "124402.540000", "124403.545000", "124404.547500", "124405.552500", "124406.557500", "124407.560000", "124408.565000", "124409.567500", "124410.572500", "124411.577500", "124412.580000", "124413.585000", "124414.587500", "124415.592500", "124416.597500", "124417.600000", "124418.605000", "124419.607500", "124420.612500", "124421.617500", "124422.620000", "124423.625000", "124424.630000", "124425.632500", "124426.637500", "124427.640000", "124428.645000", "124429.650000", "124430.652500", "124431.657500", "124432.660000", "124433.665000", "124434.670000", "124435.672500", "124436.677500", "124437.680000", "124438.685000", "124439.690000", "124440.692500", "124441.697500", "124442.700000", "124443.705000", "124444.710000", "124445.712500", "124446.717500", "124447.720000", "124448.725000", "124449.730000", "124450.732500", "124451.737500", "124452.740000", "124453.745000", "124454.750000", "124455.752500", "124456.757500", "124457.762500", "124458.765000", "124459.770000", "124500.772500", "124501.777500", "124502.782500", "124503.785000", "124504.790000", "124505.792500", "124506.797500", "124507.802500", "124508.805000", "124509.810000", "124510.812500", "124511.817500", "124512.822500", "124513.825000", "124514.830000", "124515.832500", "124516.837500", "124517.842500", "124518.845000"],
      "ContentTime": ["124016.578000", "124016.578000", "124016.578000", "124016.578000", "124016.578000", "124016.578000", "124016.593000", "124016.593000", "124016.593000", "124016.593000", "124016.593000", "124016.593000", "124016.593000", "124016.609000", "124016.609000", "124016.609000", "124016.609000", "124016.609000", "124016.609000", "124016.625000", "124016.625000", "124016.625000", "124016.625000", "124016.625000", "124016.640000", "124016.640000", "124016.640000", "124036.531000", "124036.546000", "124036.546000", "124036.546000", "124036.546000", "124036.546000", "124036.546000", "124036.546000", "124036.562000", "124036.562000", "124036.562000", "124036.562000", "124036.562000", "124036.562000", "124036.578000", "124036.578000", "124036.578000", "124036.578000", "124036.578000", "124036.578000", "124056.531000", "124056.546000", "124056.546000", "124056.546000", "124056.546000", "124056.546000", "124056.546000", "124056.546000", "124056.562000", "124056.562000", "124056.562000", "124056.562000", "124056.562000", "124056.578000", "124056.578000", "124056.578000", "124056.578000", "124056.578000", "124056.578000", "124056.578000", "124116.531000", "124116.546000", "124116.546000", "124116.546000", "124116.546000", "124116.562000", "124116.562000", "124116.562000", "124116.562000", "124116.562000", "124116.562000", "124116.562000", "124116.562000", "124116.578000", "124116.578000", "124116.578000", "124116.578000", "124116.578000", "124116.578000", "124116.578000", "124136.531000", "124136.546000", "124136.546000", "124136.546000", "124136.546000", "124136.546000", "124136.546000", "124136.546000", "124136.562000", "124136.562000", "124136.562000", "124136.562000", "124136.562000", "124136.562000", "124136.578000", "124136.578000", "124136.578000", "124136.578000", "124136.578000", "124136.578000", "124156.531000", "124156.546000", "124156.546000", "124156.546000", "124156.546000", "124156.562000", "124156.562000", "124156.562000", "124156.562000", "124156.562000", "124156.562000", "124156.562000", "124156.578000", "124156.578000", "124156.578000", "124156.578000", "124156.578000", "124156.578000", "124156.593000", "124156.593000", "124216.531000", "124216.546000", "124216.546000", "124216.546000", "124216.546000", "124216.546000", "124216.562000", "124216.562000", "124216.562000", "124216.562000", "124216.562000", "124216.562000", "124216.562000", "124216.562000", "124216.578000", "124216.578000", "124216.578000", "124216.578000", "124216.578000", "124216.578000", "124236.531000", "124236.546000", "124236.546000", "124236.546000", "124236.546000", "124236.546000", "124236.546000", "124236.546000", "124236.562000", "124236.562000", "124236.578000", "124236.578000", "124236.578000", "124236.578000", "124236.578000", "124236.578000", "124236.578000", "124236.578000", "124236.593000", "124236.593000", "124256.531000", "124256.546000", "124256.546000", "124256.546000", "124256.546000", "124256.546000", "124256.546000", "124256.562000", "124256.562000", "124256.562000", "124256.562000", "124256.562000", "124256.562000", "124256.578000", "124256.578000", "124256.578000", "124256.578000", "124256.578000", "124256.578000", "124256.578000", "124316.531000", "124316.546000", "124316.546000", "124316.546000", "124316.562000", "124316.562000", "124316.562000", "124316.562000", "124316.562000", "124316.562000", "124316.562000", "124316.578000", "124316.578000", "124316.578000", "124316.578000", "124316.578000", "124316.578000", "124316.578000", "124316.593000", "124316.593000", "124336.531000", "124336.546000", "124336.546000", "124336.546000", "124336.546000", "124336.546000", "124336.546000", "124336.546000", "124336.562000", "124336.562000", "124336.562000", "124336.562000", "124336.562000", "124336.562000", "124336.562000", "124336.578000", "124336.578000", "124336.578000", "124336.578000", "124336.578000", "124356.531000", "124356.546000", "124356.546000", "124356.546000", "124356.546000", "124356.546000", "124356.546000", "124356.546000", "124356.562000", "124356.562000", "124356.562000", "124356.562000", "124356.562000", "124356.562000", "124356.562000", "124356.578000", "124356.578000", "124356.578000", "124356.578000", "124356.578000", "124416.531000", "124416.546000", "124416.546000", "124416.546000", "124416.546000", "124416.546000", "124416.546000", "124416.546000", "124416.562000", "124416.562000", "124416.562000", "124416.562000", "124416.562000", "124416.562000", "124416.562000", "124416.562000", "124416.578000", "124416.578000", "124416.578000", "124416.578000", "124436.531000", "124436.546000", "124436.546000", "124436.546000", "124436.546000", "124436.546000", "124436.546000", "124436.546000", "124436.562000", "124436.562000", "124436.562000", "124436.562000", "124436.562000", "124436.562000", "124436.562000", "124436.562000", "124436.578000", "124436.578000", "124436.578000", "124436.593000", "124456.531000", "124456.546000", "124456.546000", "124456.546000", "124456.546000", "124456.546000", "124456.546000", "124456.546000", "124456.562000", "124456.562000", "124456.562000", "124456.562000", "124456.562000", "124456.562000", "124456.562000", "124456.578000", "124456.578000", "124456.578000", "124456.578000", "124456.578000", "124516.531000", "124516.546000", "124516.546000", "124516.546000", "124516.546000", "124516.546000", "124516.546000", "124516.546000", "124516.562000", "124516.562000", "124516.562000", "124516.562000", "124516.562000", "124516.562000", "124516.562000", "124516.578000", "124516.578000", "124516.578000", "124516.578000", "124516.578000", "124523.968000", "124523.968000", "124523.984000"],
      "InstanceCreationTime": ["124016.578000", "124016.578000", "124016.578000", "124016.578000", "124016.578000", "124016.578000", "124016.593000", "124016.593000", "124016.593000", "124016.593000", "124016.593000", "124016.593000", "124016.593000", "124016.609000", "124016.609000", "124016.609000", "124016.609000", "124016.609000", "124016.609000", "124016.625000", "124016.625000", "124016.625000", "124016.625000", "124016.625000", "124016.640000", "124016.640000", "124016.640000", "124036.531000", "124036.546000", "124036.546000", "124036.546000", "124036.546000", "124036.546000", "124036.546000", "124036.546000", "124036.562000", "124036.562000", "124036.562000", "124036.562000", "124036.562000", "124036.562000", "124036.578000", "124036.578000", "124036.578000", "124036.578000", "124036.578000", "124036.578000", "124056.531000", "124056.546000", "124056.546000", "124056.546000", "124056.546000", "124056.546000", "124056.546000", "124056.546000", "124056.562000", "124056.562000", "124056.562000", "124056.562000", "124056.562000", "124056.578000", "124056.578000", "124056.578000", "124056.578000", "124056.578000", "124056.578000", "124056.578000", "124116.531000", "124116.546000", "124116.546000", "124116.546000", "124116.546000", "124116.562000", "124116.562000", "124116.562000", "124116.562000", "124116.562000", "124116.562000", "124116.562000", "124116.562000", "124116.578000", "124116.578000", "124116.578000", "124116.578000", "124116.578000", "124116.578000", "124116.578000", "124136.531000", "124136.546000", "124136.546000", "124136.546000", "124136.546000", "124136.546000", "124136.546000", "124136.546000", "124136.562000", "124136.562000", "124136.562000", "124136.562000", "124136.562000", "124136.562000", "124136.578000", "124136.578000", "124136.578000", "124136.578000", "124136.578000", "124136.578000", "124156.531000", "124156.546000", "124156.546000", "124156.546000", "124156.546000", "124156.562000", "124156.562000", "124156.562000", "124156.562000", "124156.562000", "124156.562000", "124156.562000", "124156.578000", "124156.578000", "124156.578000", "124156.578000", "124156.578000", "124156.578000", "124156.593000", "124156.593000", "124216.531000", "124216.546000", "124216.546000", "124216.546000", "124216.546000", "124216.546000", "124216.562000", "124216.562000", "124216.562000", "124216.562000", "124216.562000", "124216.562000", "124216.562000", "124216.562000", "124216.578000", "124216.578000", "124216.578000", "124216.578000", "124216.578000", "124216.578000", "124236.531000", "124236.546000", "124236.546000", "124236.546000", "124236.546000", "124236.546000", "124236.546000", "124236.546000", "124236.562000", "124236.562000", "124236.578000", "124236.578000", "124236.578000", "124236.578000", "124236.578000", "124236.578000", "124236.578000", "124236.578000", "124236.593000", "124236.593000", "124256.531000", "124256.546000", "124256.546000", "124256.546000", "124256.546000", "124256.546000", "124256.546000", "124256.562000", "124256.562000", "124256.562000", "124256.562000", "124256.562000", "124256.562000", "124256.578000", "124256.578000", "124256.578000", "124256.578000", "124256.578000", "124256.578000", "124256.578000", "124316.531000", "124316.546000", "124316.546000", "124316.546000", "124316.562000", "124316.562000", "124316.562000", "124316.562000", "124316.562000", "124316.562000", "124316.562000", "124316.578000", "124316.578000", "124316.578000", "124316.578000", "124316.578000", "124316.578000", "124316.578000", "124316.593000", "124316.593000", "124336.531000", "124336.546000", "124336.546000", "124336.546000", "124336.546000", "124336.546000", "124336.546000", "124336.546000", "124336.562000", "124336.562000", "124336.562000", "124336.562000", "124336.562000", "124336.562000", "124336.562000", "124336.578000", "124336.578000", "124336.578000", "124336.578000", "124336.578000", "124356.531000", "124356.546000", "124356.546000", "124356.546000", "124356.546000", "124356.546000", "124356.546000", "124356.546000", "124356.562000", "124356.562000", "124356.562000", "124356.562000", "124356.562000", "124356.562000", "124356.562000", "124356.578000", "124356.578000", "124356.578000", "124356.578000", "124356.578000", "124416.531000", "124416.546000", "124416.546000", "124416.546000", "124416.546000", "124416.546000", "124416.546000", "124416.546000", "124416.562000", "124416.562000", "124416.562000", "124416.562000", "124416.562000", "124416.562000", "124416.562000", "124416.562000", "124416.578000", "124416.578000", "124416.578000", "124416.578000", "124436.531000", "124436.546000", "124436.546000", "124436.546000", "124436.546000", "124436.546000", "124436.546000", "124436.546000", "124436.562000", "124436.562000", "124436.562000", "124436.562000", "124436.562000", "124436.562000", "124436.562000", "124436.562000", "124436.578000", "124436.578000", "124436.578000", "124436.593000", "124456.531000", "124456.546000", "124456.546000", "124456.546000", "124456.546000", "124456.546000", "124456.546000", "124456.546000", "124456.562000", "124456.562000", "124456.562000", "124456.562000", "124456.562000", "124456.562000", "124456.562000", "124456.578000", "124456.578000", "124456.578000", "124456.578000", "124456.578000", "124516.531000", "124516.546000", "124516.546000", "124516.546000", "124516.546000", "124516.546000", "124516.546000", "124516.546000", "124516.562000", "124516.562000", "124516.562000", "124516.562000", "124516.562000", "124516.562000", "124516.562000", "124516.578000", "124516.578000", "124516.578000", "124516.578000", "124516.578000", "124523.968000", "124523.968000", "124523.984000"],
      "InstanceNumber": [1, 2, 3, 4, 5, 6, 7, 8, 9, 10, 11, 12, 13, 14, 15, 16, 17, 18, 19, 20, 21, 22, 23, 24, 25, 26, 27, 28, 29, 30, 31, 32, 33, 34, 35, 36, 37, 38, 39, 40, 41, 42, 43, 44, 45, 46, 47, 48, 49, 50, 51, 52, 53, 54, 55, 56, 57, 58, 59, 60, 61, 62, 63, 64, 65, 66, 67, 68, 69, 70, 71, 72, 73, 74, 75, 76, 77, 78, 79, 80, 81, 82, 83, 84, 85, 86, 87, 88, 89, 90, 91, 92, 93, 94, 95, 96, 97, 98, 99, 100, 101, 102, 103, 104, 105, 106, 107, 108, 109, 110, 111, 112, 113, 114, 115, 116, 117, 118, 119, 120, 121, 122, 123, 124, 125, 126, 127, 128, 129, 130, 131, 132, 133, 134, 135, 136, 137, 138, 139, 140, 141, 142, 143, 144, 145, 146, 147, 148, 149, 150, 151, 152, 153, 154, 155, 156, 157, 158, 159, 160, 161, 162, 163, 164, 165, 166, 167, 168, 169, 170, 171, 172, 173, 174, 175, 176, 177, 178, 179, 180, 181, 182, 183, 184, 185, 186, 187, 188, 189, 190, 191, 192, 193, 194, 195, 196, 197, 198, 199, 200, 201, 202, 203, 204, 205, 206, 207, 208, 209, 210, 211, 212, 213, 214, 215, 216, 217, 218, 219, 220, 221, 222, 223, 224, 225, 226, 227, 228, 229, 230, 231, 232, 233, 234, 235, 236, 237, 238, 239, 240, 241, 242, 243, 244, 245, 246, 247, 248, 249, 250, 251, 252, 253, 254, 255, 256, 257, 258, 259, 260, 261, 262, 263, 264, 265, 266, 267, 268, 269, 270, 271, 272, 273, 274, 275, 276, 277, 278, 279, 280, 281, 282, 283, 284, 285, 286, 287, 288, 289, 290, 291, 292, 293, 294, 295, 296, 297, 298, 299, 300, 301, 302, 303, 304, 305, 306, 307, 308, 309, 310, 311, 312, 313, 314, 315, 316, 317, 318, 319, 320, 321, 322, 323, 324, 325, 326, 327, 328, 329, 330],
      "LargestImagePixelValue": [2753, 2761, 2722, 2751, 2723, 2695, 2741, 2729, 2737, 2686, 2716, 2719, 2734, 2714, 2724, 2691, 2690, 2716, 2703, 2707, 2720, 2722, 2723, 2708, 2669, 2708, 2729, 2727, 2712, 2655, 2665, 2694, 2717, 2722, 2675, 2689, 2706, 2707, 2658, 2654, 2686, 2705, 2744, 2679, 2644, 2663, 2721, 2702, 2687, 2668, 2659, 2682, 2735, 2691, 2686, 2695, 2701, 2692, 2661, 2625, 2685, 2699, 2691, 2685, 2668, 2663, 2731, 2728, 2686, 2692, 2694, 2714, 2744, 2743, 2694, 2674, 2727, 2749, 2705, 2653, 2671, 2698, 2688, 2700, 2670, 2645, 2687, 2729, 2678, 2688, 2649, 2679, 2680, 2677, 2647, 2686, 2689, 2734, 2654, 2689, 2689, 2654, 2674, 2681, 2650, 2640, 2664, 2693, 2679, 2715, 2677, 2698, 2692, 2676, 2691, 2682, 2685, 2655, 2649, 2702, 2653, 2677, 2676, 2703, 2691, 2675, 2692, 2703, 2705, 2692, 2632, 2683, 2717, 2687, 2654, 2682, 2669, 2718, 2708, 2628, 2677, 2731, 2714, 2711, 2652, 2690, 2749, 2715, 2677, 2668, 2681, 2729, 2729, 2693, 2663, 2687, 2708, 2698, 2695, 2702, 2702, 2687, 2793, 2743, 2694, 2682, 2700, 2709, 2733, 2678, 2710, 2719, 2760, 2681, 2659, 2660, 2694, 2737, 2721, 2682, 2665, 2665, 2714, 2698, 2652, 2684, 2669, 2712, 2612, 2674, 2728, 2700, 2732, 2690, 2715, 2682, 2657, 2749, 2724, 2683, 2678, 2738, 2736, 2704, 2685, 2673, 2667, 2725, 2666, 2703, 2685, 2745, 2691, 2684, 2691, 2695, 2717, 2700, 2718, 2737, 2710, 2744, 2695, 2692, 2669, 2675, 2757, 2754, 2720, 2673, 2687, 2715, 2730, 2719, 2746, 2668, 2733, 2709, 2686, 2731, 2712, 2692, 2753, 2703, 2747, 2676, 2760, 2770, 2723, 2727, 2719, 2714, 2737, 2737, 2722, 2686, 2700, 2718, 2737, 2698, 2703, 2710, 2732, 2741, 2697, 2666, 2718, 2736, 2691, 2654, 2740, 2731, 2766, 2715, 2723, 2727, 2776, 2711, 2744, 2739, 2675, 2685, 2717, 2727, 2723, 2734, 2718, 2724, 2742, 2727, 2702, 2754, 2729, 2717, 2716, 2678, 2703, 2721, 2769, 2734, 2685, 2712, 2718, 2697, 2662, 2706, 2709, 2747, 2723, 2695, 2693, 2723, 2721, 2729, 2720, 2754, 2736, 2737, 2719, 2714, 2698, 2716, 2746, 2745, 2733, 2713, 2740, 2738, 2735, 2686],
      "WindowCenter": [450.0, 448.0, 448.0, 448.0, 447.0, 447.0, 447.0, 448.0, 447.0, 446.0, 447.0, 446.0, 446.0, 447.0, 449.0, 450.0, 451.0, 451.0, 451.0, 450.0, 450.0, 450.0, 450.0, 450.0, 450.0, 450.0, 450.0, 450.0, 449.0, 448.0, 449.0, 449.0, 450.0, 450.0, 449.0, 448.0, 448.0, 448.0, 448.0, 449.0, 449.0, 449.0, 449.0, 448.0, 448.0, 448.0, 448.0, 448.0, 448.0, 448.0, 447.0, 447.0, 449.0, 448.0, 448.0, 449.0, 449.0, 448.0, 448.0, 448.0, 448.0, 448.0, 448.0, 447.0, 447.0, 447.0, 449.0, 448.0, 448.0, 449.0, 449.0, 450.0, 451.0, 450.0, 449.0, 448.0, 448.0, 447.0, 447.0, 447.0, 447.0, 447.0, 447.0, 447.0, 447.0, 447.0, 448.0, 449.0, 449.0, 449.0, 449.0, 449.0, 448.0, 447.0, 447.0, 447.0, 447.0, 447.0, 447.0, 447.0, 448.0, 448.0, 448.0, 447.0, 446.0, 446.0, 445.0, 445.0, 446.0, 446.0, 446.0, 445.0, 446.0, 446.0, 446.0, 445.0, 446.0, 447.0, 448.0, 449.0, 448.0, 447.0, 447.0, 448.0, 447.0, 447.0, 446.0, 446.0, 446.0, 446.0, 445.0, 446.0, 447.0, 448.0, 448.0, 448.0, 447.0, 447.0, 446.0, 446.0, 446.0, 447.0, 447.0, 447.0, 446.0, 446.0, 446.0, 446.0, 446.0, 446.0, 446.0, 446.0, 447.0, 448.0, 448.0, 448.0, 448.0, 447.0, 447.0, 447.0, 448.0, 448.0, 449.0, 448.0, 447.0, 447.0, 446.0, 446.0, 447.0, 448.0, 447.0, 447.0, 447.0, 446.0, 445.0, 445.0, 445.0, 446.0, 446.0, 446.0, 447.0, 446.0, 447.0, 448.0, 447.0, 447.0, 446.0, 447.0, 446.0, 447.0, 448.0, 448.0, 448.0, 447.0, 447.0, 447.0, 447.0, 446.0, 447.0, 448.0, 448.0, 449.0, 449.0, 448.0, 447.0, 446.0, 446.0, 447.0, 448.0, 449.0, 449.0, 450.0, 448.0, 447.0, 447.0, 446.0, 445.0, 446.0, 447.0, 448.0, 448.0, 448.0, 448.0, 447.0, 447.0, 447.0, 448.0, 447.0, 447.0, 446.0, 446.0, 446.0, 446.0, 447.0, 448.0, 448.0, 448.0, 448.0, 447.0, 447.0, 446.0, 446.0, 446.0, 446.0, 446.0, 446.0, 447.0, 447.0, 447.0, 448.0, 448.0, 448.0, 448.0, 448.0, 447.0, 448.0, 448.0, 448.0, 448.0, 448.0, 447.0, 446.0, 447.0, 448.0, 449.0, 449.0, 449.0, 448.0, 447.0, 446.0, 446.0, 447.0, 448.0, 448.0, 448.0, 448.0, 447.0, 446.0, 446.0, 445.0, 445.0, 446.0, 446.0, 447.0, 447.0, 447.0, 447.0, 448.0, 449.0, 449.0, 449.0, 448.0, 447.0, 447.0, 447.0, 446.0, 447.0, 448.0, 448.0, 449.0, 449.0, 450.0, 449.0, 449.0, 448.0, 448.0, 448.0, 448.0, 447.0, 446.0, 447.0, 449.0, 449.0, 449.0, 449.0, 448.0, 446.0, 446.0, 445.0, 446.0, 446.0, 447.0, 447.0, 448.0, 448.0, 448.0, 448.0, 448.0, 448.0, 448.0],
