{
  "AcquisitionMatrixPE": 104,
  "AcquisitionNumber": 1,
  "AcquisitionTime": "13:22:36.582500",
  "BandwidthPerPixelPhaseEncode": 43.054,
  "BaseResolution": 104,
  "CoilString": "C:E1_2",
  "ConversionSoftware": "dcm2niix",
  "ConversionSoftwareVersion": "v1.0.20191031",
  "DerivedVendorReportedEchoSpacing": 0.000669999,
  "DeviceSerialNumber": "18932",
  "DwellTime": 2.8e-06,
  "EchoTime": 0.02,
  "EffectiveEchoSpacing": 0.000223333,
  "FlipAngle": 30,
  "ImageComments": "Unaliased_MB2_PE2",
  "ImageOrientationPatientDICOM": [1, 2e-16, 0, -2e-16, 0.961741, -0.273959],
  "ImageType": [
    "ORIGINAL",
    "PRIMARY",
    "M",
    "MB",
    "ND",
    "MOSAIC"
],
  "ImagingFrequency": 297.229,
  "InPlanePhaseEncodingDirectionDICOM": "COL",
  "InstitutionAddress": "Richmond_Street_North_1151_London_409EF2_Ontario_CA_N6A_5B7",
  "InstitutionName": "Robarts_Reserch_Institute",
  "InstitutionalDepartmentName": "Department",
  "MRAcquisitionType": "2D",
  "MagneticFieldStrength": 6.98,
  "Manufacturer": "Siemens",
  "ManufacturersModelName": "Investigational_Device_7T",
  "Modality": "MR",
  "MultibandAccelerationFactor": 2,
  "ParallelReductionFactorInPlane": 3,
  "PartialFourier": 0.875,
  "PatientPosition": "HFS",
  "PercentPhaseFOV": 100,
  "PhaseEncodingDirection": "j-",
  "PhaseEncodingSteps": 91,
  "PhaseResolution": 1,
  "PixelBandwidth": 1717,
  "ProcedureStepDescription": "Diedrichsen_SeqRep4",
  "ProtocolName": "mbep2d_bold_mb2_p3_AP_2iso",
  "PulseSequenceDetails": "%CustomerSeq%_cmrr_mbep2d_bold",
  "ReceiveCoilName": "CFMM_8Tx32Rx",
  "ReconMatrixPE": 104,
  "RefLinesPE": 36,
  "RepetitionTime": 1,
  "ScanOptions": "PFP_FS",
  "ScanningSequence": "EP",
  "SequenceName": "epfid2d1_104",
  "SequenceVariant": "SK_SS",
  "SeriesDescription": "mbep2d_bold_mb2_p3_AP_2iso",
  "SeriesNumber": 26,
  "ShimSetting": [29, 2057, 86, 1756, 53, 131, 355, -110],
  "SliceThickness": 2,
  "SliceTiming": [0, 0.2275, 0.455, 0.6825, 0.9125, 0.135, 0.365, 0.5925, 0.82, 0.045, 0.2725, 0.5, 0.73, 0.9575, 0.1825, 0.41, 0.6375, 0.865, 0.09, 0.3175, 0.5475, 0.775, 0, 0.2275, 0.455, 0.6825, 0.9125, 0.135, 0.365, 0.5925, 0.82, 0.045, 0.2725, 0.5, 0.73, 0.9575, 0.1825, 0.41, 0.6375, 0.865, 0.09, 0.3175, 0.5475, 0.775],
  "SoftwareVersions": "syngo_MR_B17",
  "SpacingBetweenSlices": 2,
  "StationName": "MASTER",
  "TaskName": "dsp",
  "TotalReadoutTime": 0.0230033,
  "TxRefAmp": 120,
  "dcmmeta_affine": [
    [-2.0, -4.000000067449534e-16, 1.0958368979349813e-16, 105.4527816772461],
    [-4.000000067449534e-16, 1.9234826564788818, -0.547918438911438, -102.30016326904297],
    [0.0, 0.547918438911438, 1.9234826564788818, -44.65082550048828],
    [0.0, 0.0, 0.0, 1.0]
],
  "dcmmeta_reorient_transform": [
    [0.0, -1.0, 0.0, 103.0],
    [1.0, 0.0, 0.0, 0.0],
    [0.0, 0.0, 1.0, 0.0],
    [0.0, 0.0, 0.0, 1.0]
],
  "dcmmeta_shape": [104, 104, 44, 330],
  "dcmmeta_slice_dim": 2,
  "dcmmeta_version": 0.6,
  "global": {
    "const": {
      "AcquisitionMatrix": [104, 0, 0, 104],
      "AngioFlag": "N",
      "BitsAllocated": 16,
      "BitsStored": 12,
      "Columns": 728,
      "EchoNumbers": 1,
      "EchoTime": 20.0,
      "EchoTrainLength": 1,
      "FlipAngle": 30.0,
      "HighBit": 11,
      "ImageOrientationPatient": [1.0, 2e-16, 0.0, -2e-16, 0.96174130993141, -0.2739592173507],
      "ImagePositionPatient": [-729.45278453827, -695.94512226517, 182.73532666503],
      "ImageType": [
        "ORIGINAL",
        "PRIMARY",
        "M",
        "MB",
        "ND",
        "MOSAIC"
],
      "ImagedNucleus": "1H",
      "ImagingFrequency": 297.228783,
      "InPlanePhaseEncodingDirection": "COL",
      "MRAcquisitionType": "2D",
      "MagneticFieldStrength": 6.98,
      "Manufacturer": "SIEMENS",
      "ManufacturerModelName": "Investigational_Device_7T",
      "Modality": "MR",
      "NumberOfAverages": 1.0,
      "NumberOfPhaseEncodingSteps": 91,
      "PercentPhaseFieldOfView": 100.0,
      "PercentSampling": 100.0,
      "PerformedProcedureStepStartTime": "122510.093000",
      "PhotometricInterpretation": "MONOCHROME2",
      "PixelBandwidth": 1717.0,
      "PixelRepresentation": 0,
      "PixelSpacing": [2.0, 2.0],
      "ProtocolName": "mbep2d_bold_mb2_p3_AP 2iso",
      "RepetitionTime": 1000.0,
      "Rows": 728,
      "SAR": 0.0,
      "SamplesPerPixel": 1,
      "ScanOptions": [
        "PFP",
        "FS"
],
      "ScanningSequence": "EP",
      "SequenceName": "epfid2d1_104",
      "SequenceVariant": [
        "SK",
        "SS"
],
      "SeriesDescription": "mbep2d_bold_mb2_p3_AP 2iso",
      "SeriesNumber": 26,
      "SeriesTime": "132316.578000",
      "SliceLocation": -14.916468577237,
      "SliceThickness": 2.0,
      "SmallestImagePixelValue": 0,
      "SoftwareVersions": "syngo MR B17",
      "SpacingBetweenSlices": 2.0000000104656,
      "SpecificCharacterSet": "ISO_IR 100",
      "StudyID": "1",
      "StudyTime": "122510.031000",
      "TransmitCoilName": "CFMM_8Tx32Rx",
      "VariableFlipAngleFlag": "N",
      "WindowCenterWidthExplanation": "Algo1",
      "dBdt": 0.0},
    "slices": {}
  },
  "time": {
    "samples": {
      "AcquisitionNumber": [1, 2, 3, 4, 5, 6, 7, 8, 9, 10, 11, 12, 13, 14, 15, 16, 17, 18, 19, 20, 21, 22, 23, 24, 25, 26, 27, 28, 29, 30, 31, 32, 33, 34, 35, 36, 37, 38, 39, 40, 41, 42, 43, 44, 45, 46, 47, 48, 49, 50, 51, 52, 53, 54, 55, 56, 57, 58, 59, 60, 61, 62, 63, 64, 65, 66, 67, 68, 69, 70, 71, 72, 73, 74, 75, 76, 77, 78, 79, 80, 81, 82, 83, 84, 85, 86, 87, 88, 89, 90, 91, 92, 93, 94, 95, 96, 97, 98, 99, 100, 101, 102, 103, 104, 105, 106, 107, 108, 109, 110, 111, 112, 113, 114, 115, 116, 117, 118, 119, 120, 121, 122, 123, 124, 125, 126, 127, 128, 129, 130, 131, 132, 133, 134, 135, 136, 137, 138, 139, 140, 141, 142, 143, 144, 145, 146, 147, 148, 149, 150, 151, 152, 153, 154, 155, 156, 157, 158, 159, 160, 161, 162, 163, 164, 165, 166, 167, 168, 169, 170, 171, 172, 173, 174, 175, 176, 177, 178, 179, 180, 181, 182, 183, 184, 185, 186, 187, 188, 189, 190, 191, 192, 193, 194, 195, 196, 197, 198, 199, 200, 201, 202, 203, 204, 205, 206, 207, 208, 209, 210, 211, 212, 213, 214, 215, 216, 217, 218, 219, 220, 221, 222, 223, 224, 225, 226, 227, 228, 229, 230, 231, 232, 233, 234, 235, 236, 237, 238, 239, 240, 241, 242, 243, 244, 245, 246, 247, 248, 249, 250, 251, 252, 253, 254, 255, 256, 257, 258, 259, 260, 261, 262, 263, 264, 265, 266, 267, 268, 269, 270, 271, 272, 273, 274, 275, 276, 277, 278, 279, 280, 281, 282, 283, 284, 285, 286, 287, 288, 289, 290, 291, 292, 293, 294, 295, 296, 297, 298, 299, 300, 301, 302, 303, 304, 305, 306, 307, 308, 309, 310, 311, 312, 313, 314, 315, 316, 317, 318, 319, 320, 321, 322, 323, 324, 325, 326, 327, 328, 329, 330],
      "AcquisitionTime": ["132236.582500", "132237.585000", "132238.590000", "132239.592500", "132240.597500", "132241.602500", "132242.605000", "132243.610000", "132244.612500", "132245.617500", "132246.622500", "132247.625000", "132248.630000", "132249.632500", "132250.637500", "132251.642500", "132252.645000", "132253.650000", "132254.655000", "132255.657500", "132256.662500", "132257.665000", "132258.670000", "132259.675000", "132300.677500", "132301.682500", "132302.685000", "132303.690000", "132304.695000", "132305.697500", "132306.702500", "132307.705000", "132308.710000", "132309.715000", "132310.717500", "132311.722500", "132312.725000", "132313.730000", "132314.735000", "132315.737500", "132316.742500", "132317.745000", "132318.750000", "132319.755000", "132320.757500", "132321.762500", "132322.767500", "132323.770000", "132324.775000", "132325.777500", "132326.782500", "132327.787500", "132328.790000", "132329.795000", "132330.797500", "132331.802500", "132332.807500", "132333.810000", "132334.815000", "132335.817500", "132336.822500", "132337.827500", "132338.830000", "132339.835000", "132340.837500", "132341.842500", "132342.847500", "132343.850000", "132344.855000", "132345.857500", "132346.862500", "132347.867500", "132348.870000", "132349.875000", "132350.877500", "132351.882500", "132352.887500", "132353.890000", "132354.895000", "132355.900000", "132356.902500", "132357.907500", "132358.910000", "132359.915000", "132400.920000", "132401.922500", "132402.927500", "132403.930000", "132404.935000", "132405.940000", "132406.942500", "132407.947500", "132408.950000", "132409.955000", "132410.960000", "132411.962500", "132412.967500", "132413.970000", "132414.975000", "132415.980000", "132416.982500", "132417.987500", "132418.990000", "132419.995000", "132421.000000", "132422.002500", "132423.007500", "132424.012500", "132425.015000", "132426.020000", "132427.022500", "132428.027500", "132429.032500", "132430.035000", "132431.040000", "132432.042500", "132433.047500", "132434.052500", "132435.055000", "132436.060000", "132437.062500", "132438.067500", "132439.072500", "132440.075000", "132441.080000", "132442.082500", "132443.087500", "132444.092500", "132445.095000", "132446.100000", "132447.102500", "132448.107500", "132449.112500", "132450.115000", "132451.120000", "132452.122500", "132453.127500", "132454.132500", "132455.135000", "132456.140000", "132457.145000", "132458.147500", "132459.152500", "132500.155000", "132501.160000", "132502.165000", "132503.167500", "132504.172500", "132505.175000", "132506.180000", "132507.185000", "132508.187500", "132509.192500", "132510.195000", "132511.200000", "132512.205000", "132513.207500", "132514.212500", "132515.215000", "132516.220000", "132517.225000", "132518.227500", "132519.232500", "132520.235000", "132521.240000", "132522.245000", "132523.247500", "132524.252500", "132525.255000", "132526.260000", "132527.265000", "132528.267500", "132529.272500", "132530.277500", "132531.280000", "132532.285000", "132533.287500", "132534.292500", "132535.297500", "132536.300000", "132537.305000", "132538.307500", "132539.312500", "132540.317500", "132541.320000", "132542.325000", "132543.327500", "132544.332500", "132545.337500", "132546.340000", "132547.345000", "132548.347500", "132549.352500", "132550.357500", "132551.360000", "132552.365000", "132553.367500", "132554.372500", "132555.377500", "132556.380000", "132557.385000", "132558.390000", "132559.392500", "132600.397500", "132601.400000", "132602.405000", "132603.410000", "132604.412500", "132605.417500", "132606.420000", "132607.425000", "132608.430000", "132609.432500", "132610.437500", "132611.440000", "132612.445000", "132613.450000", "132614.452500", "132615.457500", "132616.460000", "132617.465000", "132618.470000", "132619.472500", "132620.477500", "132621.480000", "132622.485000", "132623.490000", "132624.492500", "132625.497500", "132626.500000", "132627.505000", "132628.510000", "132629.512500", "132630.517500", "132631.522500", "132632.525000", "132633.530000", "132634.532500", "132635.537500", "132636.542500", "132637.545000", "132638.550000", "132639.552500", "132640.557500", "132641.562500", "132642.565000", "132643.570000", "132644.572500", "132645.577500", "132646.582500", "132647.585000", "132648.590000", "132649.592500", "132650.597500", "132651.602500", "132652.605000", "132653.610000", "132654.612500", "132655.617500", "132656.622500", "132657.625000", "132658.630000", "132659.632500", "132700.637500", "132701.642500", "132702.645000", "132703.650000", "132704.655000", "132705.657500", "132706.662500", "132707.665000", "132708.670000", "132709.675000", "132710.677500", "132711.682500", "132712.685000", "132713.690000", "132714.695000", "132715.697500", "132716.702500", "132717.705000", "132718.710000", "132719.715000", "132720.717500", "132721.722500", "132722.725000", "132723.730000", "132724.735000", "132725.737500", "132726.742500", "132727.745000", "132728.750000", "132729.755000", "132730.757500", "132731.762500", "132732.767500", "132733.770000", "132734.775000", "132735.777500", "132736.782500", "132737.787500", "132738.790000", "132739.795000", "132740.797500", "132741.802500", "132742.807500", "132743.810000", "132744.815000", "132745.817500", "132746.822500", "132747.827500", "132748.830000", "132749.835000", "132750.837500", "132751.842500", "132752.847500", "132753.850000", "132754.855000", "132755.857500", "132756.862500", "132757.867500", "132758.870000", "132759.875000", "132800.877500", "132801.882500", "132802.887500", "132803.890000", "132804.895000", "132805.900000", "132806.902500"],
      "ContentTime": ["132316.578000", "132316.578000", "132316.578000", "132316.593000", "132316.593000", "132316.593000", "132316.593000", "132316.593000", "132316.593000", "132316.593000", "132316.593000", "132316.609000", "132316.609000", "132316.609000", "132316.609000", "132316.609000", "132316.609000", "132316.609000", "132316.625000", "132316.625000", "132316.625000", "132316.625000", "132316.625000", "132316.625000", "132316.625000", "132316.640000", "132316.640000", "132316.640000", "132316.640000", "132316.640000", "132316.640000", "132316.640000", "132316.640000", "132316.656000", "132316.656000", "132316.656000", "132316.656000", "132316.656000", "132316.671000", "132336.546000", "132336.546000", "132336.546000", "132336.546000", "132336.546000", "132336.546000", "132336.546000", "132336.562000", "132336.562000", "132336.562000", "132336.562000", "132336.562000", "132336.562000", "132336.562000", "132336.578000", "132336.578000", "132336.578000", "132336.593000", "132336.593000", "132336.593000", "132356.531000", "132356.546000", "132356.546000", "132356.546000", "132356.546000", "132356.546000", "132356.546000", "132356.562000", "132356.562000", "132356.562000", "132356.562000", "132356.562000", "132356.562000", "132356.578000", "132356.578000", "132356.578000", "132356.578000", "132356.578000", "132356.578000", "132356.578000", "132416.531000", "132416.593000", "132416.609000", "132416.609000", "132416.609000", "132416.609000", "132416.609000", "132416.609000", "132416.609000", "132416.625000", "132416.625000", "132416.625000", "132416.625000", "132416.625000", "132416.640000", "132416.640000", "132416.640000", "132416.640000", "132416.640000", "132416.640000", "132436.531000", "132436.546000", "132436.546000", "132436.546000", "132436.546000", "132436.546000", "132436.546000", "132436.546000", "132436.562000", "132436.562000", "132436.562000", "132436.562000", "132436.578000", "132436.593000", "132436.593000", "132436.593000", "132436.593000", "132436.593000", "132436.593000", "132436.593000", "132456.531000", "132456.546000", "132456.546000", "132456.546000", "132456.546000", "132456.546000", "132456.546000", "132456.546000", "132456.562000", "132456.562000", "132456.562000", "132456.562000", "132456.562000", "132456.578000", "132456.578000", "132456.578000", "132456.578000", "132456.578000", "132456.578000", "132456.593000", "132516.531000", "132516.546000", "132516.546000", "132516.546000", "132516.546000", "132516.562000", "132516.562000", "132516.562000", "132516.562000", "132516.562000", "132516.562000", "132516.562000", "132516.578000", "132516.578000", "132516.578000", "132516.578000", "132516.578000", "132516.578000", "132516.578000", "132516.593000", "132536.531000", "132536.593000", "132536.593000", "132536.593000", "132536.593000", "132536.593000", "132536.593000", "132536.593000", "132536.609000", "132536.609000", "132536.609000", "132536.609000", "132536.609000", "132536.609000", "132536.625000", "132536.625000", "132536.625000", "132536.625000", "132536.625000", "132536.625000", "132556.531000", "132556.546000", "132556.546000", "132556.546000", "132556.546000", "132556.546000", "132556.546000", "132556.546000", "132556.562000", "132556.562000", "132556.562000", "132556.562000", "132556.562000", "132556.562000", "132556.562000", "132556.578000", "132556.578000", "132556.578000", "132556.578000", "132556.578000", "132616.531000", "132616.546000", "132616.546000", "132616.546000", "132616.546000", "132616.546000", "132616.562000", "132616.562000", "132616.562000", "132616.562000", "132616.562000", "132616.578000", "132616.578000", "132616.578000", "132616.578000", "132616.578000", "132616.578000", "132616.578000", "132616.593000", "132616.593000", "132636.531000", "132636.546000", "132636.546000", "132636.546000", "132636.546000", "132636.546000", "132636.562000", "132636.562000", "132636.562000", "132636.562000", "132636.562000", "132636.562000", "132636.578000", "132636.578000", "132636.578000", "132636.578000", "132636.578000", "132636.578000", "132636.578000", "132636.593000", "132656.531000", "132656.593000", "132656.593000", "132656.593000", "132656.609000", "132656.609000", "132656.609000", "132656.609000", "132656.609000", "132656.609000", "132656.609000", "132656.625000", "132656.625000", "132656.625000", "132656.625000", "132656.625000", "132656.625000", "132656.640000", "132656.640000", "132656.640000", "132716.531000", "132716.546000", "132716.546000", "132716.546000", "132716.546000", "132716.562000", "132716.562000", "132716.562000", "132716.562000", "132716.578000", "132716.578000", "132716.578000", "132716.578000", "132716.578000", "132716.578000", "132716.593000", "132716.593000", "132716.593000", "132716.593000", "132716.593000", "132736.531000", "132736.546000", "132736.546000", "132736.546000", "132736.562000", "132736.562000", "132736.562000", "132736.562000", "132736.578000", "132736.578000", "132736.578000", "132736.578000", "132736.578000", "132736.593000", "132736.593000", "132736.593000", "132736.593000", "132736.593000", "132736.609000", "132736.609000", "132756.531000", "132756.546000", "132756.546000", "132756.546000", "132756.546000", "132756.546000", "132756.546000", "132756.546000", "132756.562000", "132756.562000", "132756.562000", "132756.562000", "132756.562000", "132756.562000", "132756.562000", "132756.578000", "132756.578000", "132756.578000", "132756.578000", "132756.578000", "132812.296000", "132812.312000", "132812.312000", "132812.312000", "132812.312000", "132812.312000", "132812.312000", "132812.312000", "132812.328000", "132812.328000", "132812.328000"],
      "InstanceCreationTime": ["132316.578000", "132316.578000", "132316.578000", "132316.593000", "132316.593000", "132316.593000", "132316.593000", "132316.593000", "132316.593000", "132316.593000", "132316.593000", "132316.609000", "132316.609000", "132316.609000", "132316.609000", "132316.609000", "132316.609000", "132316.609000", "132316.625000", "132316.625000", "132316.625000", "132316.625000", "132316.625000", "132316.625000", "132316.625000", "132316.640000", "132316.640000", "132316.640000", "132316.640000", "132316.640000", "132316.640000", "132316.640000", "132316.640000", "132316.656000", "132316.656000", "132316.656000", "132316.656000", "132316.656000", "132316.671000", "132336.546000", "132336.546000", "132336.546000", "132336.546000", "132336.546000", "132336.546000", "132336.546000", "132336.562000", "132336.562000", "132336.562000", "132336.562000", "132336.562000", "132336.562000", "132336.562000", "132336.578000", "132336.578000", "132336.578000", "132336.593000", "132336.593000", "132336.593000", "132356.531000", "132356.546000", "132356.546000", "132356.546000", "132356.546000", "132356.546000", "132356.546000", "132356.562000", "132356.562000", "132356.562000", "132356.562000", "132356.562000", "132356.562000", "132356.578000", "132356.578000", "132356.578000", "132356.578000", "132356.578000", "132356.578000", "132356.578000", "132416.531000", "132416.593000", "132416.609000", "132416.609000", "132416.609000", "132416.609000", "132416.609000", "132416.609000", "132416.609000", "132416.625000", "132416.625000", "132416.625000", "132416.625000", "132416.625000", "132416.640000", "132416.640000", "132416.640000", "132416.640000", "132416.640000", "132416.640000", "132436.531000", "132436.546000", "132436.546000", "132436.546000", "132436.546000", "132436.546000", "132436.546000", "132436.546000", "132436.562000", "132436.562000", "132436.562000", "132436.562000", "132436.578000", "132436.593000", "132436.593000", "132436.593000", "132436.593000", "132436.593000", "132436.593000", "132436.593000", "132456.531000", "132456.546000", "132456.546000", "132456.546000", "132456.546000", "132456.546000", "132456.546000", "132456.546000", "132456.562000", "132456.562000", "132456.562000", "132456.562000", "132456.562000", "132456.578000", "132456.578000", "132456.578000", "132456.578000", "132456.578000", "132456.578000", "132456.593000", "132516.531000", "132516.546000", "132516.546000", "132516.546000", "132516.546000", "132516.562000", "132516.562000", "132516.562000", "132516.562000", "132516.562000", "132516.562000", "132516.562000", "132516.578000", "132516.578000", "132516.578000", "132516.578000", "132516.578000", "132516.578000", "132516.578000", "132516.593000", "132536.531000", "132536.593000", "132536.593000", "132536.593000", "132536.593000", "132536.593000", "132536.593000", "132536.593000", "132536.609000", "132536.609000", "132536.609000", "132536.609000", "132536.609000", "132536.609000", "132536.625000", "132536.625000", "132536.625000", "132536.625000", "132536.625000", "132536.625000", "132556.531000", "132556.546000", "132556.546000", "132556.546000", "132556.546000", "132556.546000", "132556.546000", "132556.546000", "132556.562000", "132556.562000", "132556.562000", "132556.562000", "132556.562000", "132556.562000", "132556.562000", "132556.578000", "132556.578000", "132556.578000", "132556.578000", "132556.578000", "132616.531000", "132616.546000", "132616.546000", "132616.546000", "132616.546000", "132616.546000", "132616.562000", "132616.562000", "132616.562000", "132616.562000", "132616.562000", "132616.578000", "132616.578000", "132616.578000", "132616.578000", "132616.578000", "132616.578000", "132616.578000", "132616.593000", "132616.593000", "132636.531000", "132636.546000", "132636.546000", "132636.546000", "132636.546000", "132636.546000", "132636.562000", "132636.562000", "132636.562000", "132636.562000", "132636.562000", "132636.562000", "132636.578000", "132636.578000", "132636.578000", "132636.578000", "132636.578000", "132636.578000", "132636.578000", "132636.593000", "132656.531000", "132656.593000", "132656.593000", "132656.593000", "132656.609000", "132656.609000", "132656.609000", "132656.609000", "132656.609000", "132656.609000", "132656.609000", "132656.625000", "132656.625000", "132656.625000", "132656.625000", "132656.625000", "132656.625000", "132656.640000", "132656.640000", "132656.640000", "132716.531000", "132716.546000", "132716.546000", "132716.546000", "132716.546000", "132716.562000", "132716.562000", "132716.562000", "132716.562000", "132716.578000", "132716.578000", "132716.578000", "132716.578000", "132716.578000", "132716.578000", "132716.593000", "132716.593000", "132716.593000", "132716.593000", "132716.593000", "132736.531000", "132736.546000", "132736.546000", "132736.546000", "132736.562000", "132736.562000", "132736.562000", "132736.562000", "132736.578000", "132736.578000", "132736.578000", "132736.578000", "132736.578000", "132736.593000", "132736.593000", "132736.593000", "132736.593000", "132736.593000", "132736.609000", "132736.609000", "132756.531000", "132756.546000", "132756.546000", "132756.546000", "132756.546000", "132756.546000", "132756.546000", "132756.546000", "132756.562000", "132756.562000", "132756.562000", "132756.562000", "132756.562000", "132756.562000", "132756.562000", "132756.578000", "132756.578000", "132756.578000", "132756.578000", "132756.578000", "132812.296000", "132812.312000", "132812.312000", "132812.312000", "132812.312000", "132812.312000", "132812.312000", "132812.312000", "132812.328000", "132812.328000", "132812.328000"],
      "InstanceNumber": [1, 2, 3, 4, 5, 6, 7, 8, 9, 10, 11, 12, 13, 14, 15, 16, 17, 18, 19, 20, 21, 22, 23, 24, 25, 26, 27, 28, 29, 30, 31, 32, 33, 34, 35, 36, 37, 38, 39, 40, 41, 42, 43, 44, 45, 46, 47, 48, 49, 50, 51, 52, 53, 54, 55, 56, 57, 58, 59, 60, 61, 62, 63, 64, 65, 66, 67, 68, 69, 70, 71, 72, 73, 74, 75, 76, 77, 78, 79, 80, 81, 82, 83, 84, 85, 86, 87, 88, 89, 90, 91, 92, 93, 94, 95, 96, 97, 98, 99, 100, 101, 102, 103, 104, 105, 106, 107, 108, 109, 110, 111, 112, 113, 114, 115, 116, 117, 118, 119, 120, 121, 122, 123, 124, 125, 126, 127, 128, 129, 130, 131, 132, 133, 134, 135, 136, 137, 138, 139, 140, 141, 142, 143, 144, 145, 146, 147, 148, 149, 150, 151, 152, 153, 154, 155, 156, 157, 158, 159, 160, 161, 162, 163, 164, 165, 166, 167, 168, 169, 170, 171, 172, 173, 174, 175, 176, 177, 178, 179, 180, 181, 182, 183, 184, 185, 186, 187, 188, 189, 190, 191, 192, 193, 194, 195, 196, 197, 198, 199, 200, 201, 202, 203, 204, 205, 206, 207, 208, 209, 210, 211, 212, 213, 214, 215, 216, 217, 218, 219, 220, 221, 222, 223, 224, 225, 226, 227, 228, 229, 230, 231, 232, 233, 234, 235, 236, 237, 238, 239, 240, 241, 242, 243, 244, 245, 246, 247, 248, 249, 250, 251, 252, 253, 254, 255, 256, 257, 258, 259, 260, 261, 262, 263, 264, 265, 266, 267, 268, 269, 270, 271, 272, 273, 274, 275, 276, 277, 278, 279, 280, 281, 282, 283, 284, 285, 286, 287, 288, 289, 290, 291, 292, 293, 294, 295, 296, 297, 298, 299, 300, 301, 302, 303, 304, 305, 306, 307, 308, 309, 310, 311, 312, 313, 314, 315, 316, 317, 318, 319, 320, 321, 322, 323, 324, 325, 326, 327, 328, 329, 330],
      "LargestImagePixelValue": [2731, 2763, 2738, 2716, 2666, 2647, 2691, 2647, 2676, 2659, 2690, 2707, 2651, 2659, 2641, 2655, 2634, 2671, 2625, 2573, 2640, 2626, 2691, 2630, 2658, 2670, 2679, 2641, 2674, 2677, 2667, 2676, 2655, 2634, 2677, 2669, 2668, 2625, 2697, 2622, 2664, 2673, 2663, 2680, 2633, 2627, 2662, 2660, 2618, 2635, 2696, 2672, 2690, 2713, 2669, 2623, 2645, 2650, 2635, 2697, 2691, 2662, 2679, 2674, 2661, 2684, 2599, 2600, 2647, 2650, 2670, 2656, 2737, 2706, 2616, 2682, 2673, 2650, 2660, 2718, 2644, 2720, 2683, 2662, 2666, 2684, 2700, 2644, 2686, 2732, 2694, 2648, 2704, 2628, 2698, 2723, 2642, 2687, 2615, 2678, 2696, 2658, 2678, 2695, 2687, 2670, 2716, 2669, 2726, 2661, 2686, 2709, 2700, 2728, 2672, 2698, 2653, 2640, 2693, 2689, 2658, 2608, 2670, 2689, 2662, 2639, 2651, 2683, 2639, 2691, 2654, 2675, 2628, 2702, 2646, 2636, 2697, 2620, 2667, 2630, 2717, 2692, 2621, 2658, 2741, 2636, 2652, 2665, 2680, 2606, 2676, 2705, 2678, 2718, 2681, 2645, 2697, 2631, 2648, 2664, 2725, 2694, 2691, 2632, 2695, 2684, 2662, 2666, 2698, 2630, 2712, 2705, 2709, 2618, 2609, 2623, 2730, 2683, 2643, 2659, 2681, 2688, 2636, 2673, 2642, 2691, 2679, 2694, 2673, 2696, 2705, 2730, 2700, 2630, 2637, 2672, 2684, 2728, 2653, 2676, 2746, 2711, 2679, 2685, 2617, 2700, 2610, 2644, 2713, 2641, 2675, 2669, 2643, 2668, 2700, 2686, 2677, 2620, 2699, 2626, 2733, 2634, 2716, 2701, 2651, 2668, 2683, 2707, 2692, 2673, 2668, 2694, 2668, 2619, 2669, 2665, 2684, 2718, 2695, 2672, 2658, 2683, 2647, 2672, 2702, 2621, 2659, 2639, 2683, 2656, 2700, 2733, 2663, 2646, 2654, 2672, 2688, 2643, 2705, 2663, 2710, 2665, 2668, 2642, 2652, 2693, 2679, 2656, 2638, 2696, 2680, 2705, 2666, 2640, 2736, 2715, 2686, 2670, 2644, 2730, 2702, 2669, 2648, 2706, 2701, 2657, 2653, 2700, 2677, 2637, 2665, 2649, 2655, 2691, 2643, 2693, 2712, 2690, 2678, 2693, 2679, 2668, 2695, 2690, 2719, 2697, 2695, 2681, 2647, 2700, 2719, 2688, 2630, 2609, 2644, 2680, 2680, 2625, 2664, 2650, 2742, 2698, 2741, 2646, 2663, 2719, 2675, 2645, 2705, 2681],
      "WindowCenter": [444.0, 443.0, 443.0, 442.0, 442.0, 442.0, 441.0, 441.0, 441.0, 441.0, 441.0, 442.0, 442.0, 442.0, 443.0, 443.0, 443.0, 443.0, 442.0, 442.0, 443.0, 443.0, 443.0, 443.0, 443.0, 442.0, 442.0, 442.0, 441.0, 441.0, 441.0, 441.0, 442.0, 442.0, 443.0, 443.0, 441.0, 440.0, 440.0, 439.0, 441.0, 441.0, 442.0, 443.0, 443.0, 443.0, 443.0, 442.0, 442.0, 442.0, 442.0, 444.0, 444.0, 443.0, 442.0, 441.0, 440.0, 441.0, 441.0, 441.0, 443.0, 443.0, 444.0, 444.0, 445.0, 444.0, 443.0, 443.0, 442.0, 442.0, 442.0, 442.0, 442.0, 442.0, 442.0, 441.0, 442.0, 441.0, 441.0, 441.0, 440.0, 441.0, 441.0, 441.0, 443.0, 443.0, 443.0, 443.0, 442.0, 442.0, 441.0, 440.0, 441.0, 440.0, 441.0, 442.0, 442.0, 442.0, 441.0, 442.0, 441.0, 441.0, 441.0, 442.0, 442.0, 442.0, 442.0, 442.0, 442.0, 441.0, 441.0, 441.0, 442.0, 442.0, 442.0, 443.0, 442.0, 442.0, 441.0, 441.0, 441.0, 441.0, 441.0, 441.0, 442.0, 441.0, 441.0, 442.0, 441.0, 442.0, 441.0, 442.0, 441.0, 441.0, 441.0, 440.0, 440.0, 440.0, 440.0, 440.0, 442.0, 443.0, 444.0, 443.0, 442.0, 441.0, 440.0, 439.0, 440.0, 440.0, 441.0, 442.0, 442.0, 442.0, 442.0, 442.0, 442.0, 443.0, 444.0, 444.0, 444.0, 443.0, 443.0, 442.0, 442.0, 442.0, 442.0, 443.0, 444.0, 443.0, 443.0, 442.0, 442.0, 442.0, 442.0, 441.0, 443.0, 443.0, 442.0, 442.0, 441.0, 442.0, 441.0, 442.0, 442.0, 443.0, 443.0, 443.0, 443.0, 443.0, 442.0, 442.0, 441.0, 440.0, 441.0, 442.0, 443.0, 444.0, 443.0, 443.0, 442.0, 441.0, 441.0, 440.0, 440.0, 441.0, 441.0, 442.0, 442.0, 442.0, 442.0, 442.0, 442.0, 441.0, 442.0, 442.0, 442.0, 441.0, 442.0, 442.0, 442.0, 442.0, 443.0, 443.0, 442.0, 441.0, 442.0, 442.0, 442.0, 442.0, 441.0, 441.0, 443.0, 442.0, 442.0, 442.0, 442.0, 443.0, 442.0, 443.0, 442.0, 443.0, 442.0, 442.0, 441.0, 440.0, 441.0, 441.0, 442.0, 442.0, 442.0, 442.0, 441.0, 441.0, 441.0, 441.0, 442.0, 442.0, 442.0, 442.0, 442.0, 442.0, 443.0, 443.0, 443.0, 443.0, 444.0, 443.0, 442.0, 441.0, 440.0, 440.0, 440.0, 441.0, 443.0, 443.0, 442.0, 442.0, 441.0, 441.0, 441.0, 441.0, 442.0, 442.0, 441.0, 442.0, 442.0, 442.0, 442.0, 442.0, 442.0, 441.0, 441.0, 440.0, 440.0, 441.0, 442.0, 442.0, 443.0, 444.0, 444.0, 443.0, 443.0, 442.0, 442.0, 441.0, 441.0, 441.0, 442.0, 444.0, 446.0, 444.0, 443.0, 441.0, 440.0, 440.0, 440.0, 441.0, 442.0, 443.0, 444.0, 443.0, 443.0, 442.0, 441.0, 441.0, 440.0, 440.0, 440.0, 440.0],
