{
  "AcquisitionMatrixPE": 104,
  "AcquisitionNumber": 1,
  "AcquisitionTime": "13:05:52.690000",
  "BandwidthPerPixelPhaseEncode": 43.054,
  "BaseResolution": 104,
  "CoilString": "C:E1_2",
  "ConversionSoftware": "dcm2niix",
  "ConversionSoftwareVersion": "v1.0.20191031",
  "DerivedVendorReportedEchoSpacing": 0.000669999,
  "DeviceSerialNumber": "18932",
  "DwellTime": 2.8e-06,
  "EchoTime": 0.02,
  "EffectiveEchoSpacing": 0.000223333,
  "FlipAngle": 30,
  "ImageComments": "Unaliased_MB2_PE2",
  "ImageOrientationPatientDICOM": [1, 2e-16, 0, -2e-16, 0.961741, -0.273959],
  "ImageType": [
    "ORIGINAL",
    "PRIMARY",
    "M",
    "MB",
    "ND",
    "MOSAIC"
],
  "ImagingFrequency": 297.229,
  "InPlanePhaseEncodingDirectionDICOM": "COL",
  "InstitutionAddress": "Richmond_Street_North_1151_London_409EF2_Ontario_CA_N6A_5B7",
  "InstitutionName": "Robarts_Reserch_Institute",
  "InstitutionalDepartmentName": "Department",
  "MRAcquisitionType": "2D",
  "MagneticFieldStrength": 6.98,
  "Manufacturer": "Siemens",
  "ManufacturersModelName": "Investigational_Device_7T",
  "Modality": "MR",
  "MultibandAccelerationFactor": 2,
  "ParallelReductionFactorInPlane": 3,
  "PartialFourier": 0.875,
  "PatientPosition": "HFS",
  "PercentPhaseFOV": 100,
  "PhaseEncodingDirection": "j-",
  "PhaseEncodingSteps": 91,
  "PhaseResolution": 1,
  "PixelBandwidth": 1717,
  "ProcedureStepDescription": "Diedrichsen_SeqRep4",
  "ProtocolName": "mbep2d_bold_mb2_p3_AP_2iso",
  "PulseSequenceDetails": "%CustomerSeq%_cmrr_mbep2d_bold",
  "ReceiveCoilName": "CFMM_8Tx32Rx",
  "ReconMatrixPE": 104,
  "RefLinesPE": 36,
  "RepetitionTime": 1,
  "ScanOptions": "PFP_FS",
  "ScanningSequence": "EP",
  "SequenceName": "epfid2d1_104",
  "SequenceVariant": "SK_SS",
  "SeriesDescription": "mbep2d_bold_mb2_p3_AP_2iso",
  "SeriesNumber": 19,
  "ShimSetting": [29, 2057, 86, 1756, 53, 131, 355, -110],
  "SliceThickness": 2,
  "SliceTiming": [0, 0.2275, 0.455, 0.6825, 0.91, 0.135, 0.365, 0.5925, 0.82, 0.045, 0.2725, 0.5, 0.7275, 0.9575, 0.1825, 0.41, 0.6375, 0.865, 0.09, 0.3175, 0.5475, 0.775, 0, 0.2275, 0.455, 0.6825, 0.91, 0.135, 0.365, 0.5925, 0.82, 0.045, 0.2725, 0.5, 0.7275, 0.9575, 0.1825, 0.41, 0.6375, 0.865, 0.09, 0.3175, 0.5475, 0.775],
  "SoftwareVersions": "syngo_MR_B17",
  "SpacingBetweenSlices": 2,
  "StationName": "MASTER",
  "TaskName": "dsp",
  "TotalReadoutTime": 0.0230033,
  "TxRefAmp": 120,
  "dcmmeta_affine": [
    [-2.0, -4.000000067449534e-16, 1.0958368979349813e-16, 105.4527816772461],
    [-4.000000067449534e-16, 1.9234826564788818, -0.547918438911438, -102.30016326904297],
    [0.0, 0.547918438911438, 1.9234826564788818, -44.65082550048828],
    [0.0, 0.0, 0.0, 1.0]
],
  "dcmmeta_reorient_transform": [
    [0.0, -1.0, 0.0, 103.0],
    [1.0, 0.0, 0.0, 0.0],
    [0.0, 0.0, 1.0, 0.0],
    [0.0, 0.0, 0.0, 1.0]
],
  "dcmmeta_shape": [104, 104, 44, 330],
  "dcmmeta_slice_dim": 2,
  "dcmmeta_version": 0.6,
  "global": {
    "const": {
      "AcquisitionMatrix": [104, 0, 0, 104],
      "AngioFlag": "N",
      "BitsAllocated": 16,
      "BitsStored": 12,
      "Columns": 728,
      "EchoNumbers": 1,
      "EchoTime": 20.0,
      "EchoTrainLength": 1,
      "FlipAngle": 30.0,
      "HighBit": 11,
      "ImageOrientationPatient": [1.0, 2e-16, 0.0, -2e-16, 0.96174130993141, -0.2739592173507],
      "ImagePositionPatient": [-729.45278453827, -695.94512226517, 182.73532666503],
      "ImageType": [
        "ORIGINAL",
        "PRIMARY",
        "M",
        "MB",
        "ND",
        "MOSAIC"
],
      "ImagedNucleus": "1H",
      "ImagingFrequency": 297.228783,
      "InPlanePhaseEncodingDirection": "COL",
      "MRAcquisitionType": "2D",
      "MagneticFieldStrength": 6.98,
      "Manufacturer": "SIEMENS",
      "ManufacturerModelName": "Investigational_Device_7T",
      "Modality": "MR",
      "NumberOfAverages": 1.0,
      "NumberOfPhaseEncodingSteps": 91,
      "PercentPhaseFieldOfView": 100.0,
      "PercentSampling": 100.0,
      "PerformedProcedureStepStartTime": "122510.093000",
      "PhotometricInterpretation": "MONOCHROME2",
      "PixelBandwidth": 1717.0,
      "PixelRepresentation": 0,
      "PixelSpacing": [2.0, 2.0],
      "ProtocolName": "mbep2d_bold_mb2_p3_AP 2iso",
      "RepetitionTime": 1000.0,
      "Rows": 728,
      "SAR": 0.0,
      "SamplesPerPixel": 1,
      "ScanOptions": [
        "PFP",
        "FS"
],
      "ScanningSequence": "EP",
      "SequenceName": "epfid2d1_104",
      "SequenceVariant": [
        "SK",
        "SS"
],
      "SeriesDescription": "mbep2d_bold_mb2_p3_AP 2iso",
      "SeriesNumber": 19,
      "SeriesTime": "130601.125000",
      "SliceLocation": -14.916468577237,
      "SliceThickness": 2.0,
      "SmallestImagePixelValue": 0,
      "SoftwareVersions": "syngo MR B17",
      "SpacingBetweenSlices": 2.0000000104656,
      "SpecificCharacterSet": "ISO_IR 100",
      "StudyID": "1",
      "StudyTime": "122510.031000",
      "TransmitCoilName": "CFMM_8Tx32Rx",
      "VariableFlipAngleFlag": "N",
      "WindowCenterWidthExplanation": "Algo1",
      "dBdt": 0.0},
    "slices": {}
  },
  "time": {
    "samples": {
      "AcquisitionNumber": [1, 2, 3, 4, 5, 6, 7, 8, 9, 10, 11, 12, 13, 14, 15, 16, 17, 18, 19, 20, 21, 22, 23, 24, 25, 26, 27, 28, 29, 30, 31, 32, 33, 34, 35, 36, 37, 38, 39, 40, 41, 42, 43, 44, 45, 46, 47, 48, 49, 50, 51, 52, 53, 54, 55, 56, 57, 58, 59, 60, 61, 62, 63, 64, 65, 66, 67, 68, 69, 70, 71, 72, 73, 74, 75, 76, 77, 78, 79, 80, 81, 82, 83, 84, 85, 86, 87, 88, 89, 90, 91, 92, 93, 94, 95, 96, 97, 98, 99, 100, 101, 102, 103, 104, 105, 106, 107, 108, 109, 110, 111, 112, 113, 114, 115, 116, 117, 118, 119, 120, 121, 122, 123, 124, 125, 126, 127, 128, 129, 130, 131, 132, 133, 134, 135, 136, 137, 138, 139, 140, 141, 142, 143, 144, 145, 146, 147, 148, 149, 150, 151, 152, 153, 154, 155, 156, 157, 158, 159, 160, 161, 162, 163, 164, 165, 166, 167, 168, 169, 170, 171, 172, 173, 174, 175, 176, 177, 178, 179, 180, 181, 182, 183, 184, 185, 186, 187, 188, 189, 190, 191, 192, 193, 194, 195, 196, 197, 198, 199, 200, 201, 202, 203, 204, 205, 206, 207, 208, 209, 210, 211, 212, 213, 214, 215, 216, 217, 218, 219, 220, 221, 222, 223, 224, 225, 226, 227, 228, 229, 230, 231, 232, 233, 234, 235, 236, 237, 238, 239, 240, 241, 242, 243, 244, 245, 246, 247, 248, 249, 250, 251, 252, 253, 254, 255, 256, 257, 258, 259, 260, 261, 262, 263, 264, 265, 266, 267, 268, 269, 270, 271, 272, 273, 274, 275, 276, 277, 278, 279, 280, 281, 282, 283, 284, 285, 286, 287, 288, 289, 290, 291, 292, 293, 294, 295, 296, 297, 298, 299, 300, 301, 302, 303, 304, 305, 306, 307, 308, 309, 310, 311, 312, 313, 314, 315, 316, 317, 318, 319, 320, 321, 322, 323, 324, 325, 326, 327, 328, 329, 330],
      "AcquisitionTime": ["130552.690000", "130553.692500", "130554.697500", "130555.700000", "130556.705000", "130557.710000", "130558.712500", "130559.717500", "130600.720000", "130601.725000", "130602.730000", "130603.732500", "130604.737500", "130605.740000", "130606.745000", "130607.750000", "130608.752500", "130609.757500", "130610.760000", "130611.765000", "130612.770000", "130613.772500", "130614.777500", "130615.782500", "130616.785000", "130617.790000", "130618.792500", "130619.797500", "130620.802500", "130621.805000", "130622.810000", "130623.812500", "130624.817500", "130625.822500", "130626.825000", "130627.830000", "130628.832500", "130629.837500", "130630.842500", "130631.845000", "130632.850000", "130633.852500", "130634.857500", "130635.862500", "130636.865000", "130637.870000", "130638.872500", "130639.877500", "130640.882500", "130641.885000", "130642.890000", "130643.892500", "130644.897500", "130645.902500", "130646.905000", "130647.910000", "130648.915000", "130649.917500", "130650.922500", "130651.925000", "130652.930000", "130653.935000", "130654.937500", "130655.942500", "130656.945000", "130657.950000", "130658.955000", "130659.957500", "130700.962500", "130701.965000", "130702.970000", "130703.975000", "130704.977500", "130705.982500", "130706.985000", "130707.990000", "130708.995000", "130709.997500", "130711.002500", "130712.005000", "130713.010000", "130714.015000", "130715.017500", "130716.022500", "130717.027500", "130718.030000", "130719.035000", "130720.037500", "130721.042500", "130722.047500", "130723.050000", "130724.055000", "130725.057500", "130726.062500", "130727.067500", "130728.070000", "130729.075000", "130730.077500", "130731.082500", "130732.087500", "130733.090000", "130734.095000", "130735.097500", "130736.102500", "130737.107500", "130738.110000", "130739.115000", "130740.117500", "130741.122500", "130742.127500", "130743.130000", "130744.135000", "130745.137500", "130746.142500", "130747.147500", "130748.150000", "130749.155000", "130750.160000", "130751.162500", "130752.167500", "130753.170000", "130754.175000", "130755.180000", "130756.182500", "130757.187500", "130758.190000", "130759.195000", "130800.200000", "130801.202500", "130802.207500", "130803.210000", "130804.215000", "130805.220000", "130806.222500", "130807.227500", "130808.230000", "130809.235000", "130810.240000", "130811.242500", "130812.247500", "130813.250000", "130814.255000", "130815.260000", "130816.262500", "130817.267500", "130818.270000", "130819.275000", "130820.280000", "130821.282500", "130822.287500", "130823.292500", "130824.295000", "130825.300000", "130826.302500", "130827.307500", "130828.312500", "130829.315000", "130830.320000", "130831.322500", "130832.327500", "130833.332500", "130834.335000", "130835.340000", "130836.342500", "130837.347500", "130838.352500", "130839.355000", "130840.360000", "130841.362500", "130842.367500", "130843.372500", "130844.375000", "130845.380000", "130846.382500", "130847.387500", "130848.392500", "130849.395000", "130850.400000", "130851.405000", "130852.407500", "130853.412500", "130854.415000", "130855.420000", "130856.425000", "130857.427500", "130858.432500", "130859.435000", "130900.440000", "130901.445000", "130902.447500", "130903.452500", "130904.455000", "130905.460000", "130906.465000", "130907.467500", "130908.472500", "130909.475000", "130910.480000", "130911.485000", "130912.487500", "130913.492500", "130914.495000", "130915.500000", "130916.505000", "130917.507500", "130918.512500", "130919.515000", "130920.520000", "130921.525000", "130922.527500", "130923.532500", "130924.537500", "130925.540000", "130926.545000", "130927.547500", "130928.552500", "130929.557500", "130930.560000", "130931.565000", "130932.567500", "130933.572500", "130934.577500", "130935.580000", "130936.585000", "130937.587500", "130938.592500", "130939.597500", "130940.600000", "130941.605000", "130942.607500", "130943.612500", "130944.617500", "130945.620000", "130946.625000", "130947.627500", "130948.632500", "130949.637500", "130950.640000", "130951.645000", "130952.650000", "130953.652500", "130954.657500", "130955.660000", "130956.665000", "130957.670000", "130958.672500", "130959.677500", "131000.680000", "131001.685000", "131002.690000", "131003.692500", "131004.697500", "131005.700000", "131006.705000", "131007.710000", "131008.712500", "131009.717500", "131010.720000", "131011.725000", "131012.730000", "131013.732500", "131014.737500", "131015.740000", "131016.745000", "131017.750000", "131018.752500", "131019.757500", "131020.760000", "131021.765000", "131022.770000", "131023.772500", "131024.777500", "131025.782500", "131026.785000", "131027.790000", "131028.792500", "131029.797500", "131030.802500", "131031.805000", "131032.810000", "131033.812500", "131034.817500", "131035.822500", "131036.825000", "131037.830000", "131038.832500", "131039.837500", "131040.842500", "131041.845000", "131042.850000", "131043.852500", "131044.857500", "131045.862500", "131046.865000", "131047.870000", "131048.872500", "131049.877500", "131050.882500", "131051.885000", "131052.890000", "131053.892500", "131054.897500", "131055.902500", "131056.905000", "131057.910000", "131058.915000", "131059.917500", "131100.922500", "131101.925000", "131102.930000", "131103.935000", "131104.937500", "131105.942500", "131106.945000", "131107.950000", "131108.955000", "131109.957500", "131110.962500", "131111.965000", "131112.970000", "131113.975000", "131114.977500", "131115.982500", "131116.985000", "131117.990000", "131118.995000", "131119.997500", "131121.002500", "131122.005000", "131123.010000"],
      "ContentTime": ["130601.125000", "130601.125000", "130601.125000", "130601.140000", "130601.140000", "130601.140000", "130601.140000", "130621.078000", "130621.093000", "130621.093000", "130621.093000", "130621.093000", "130621.093000", "130621.093000", "130621.093000", "130621.109000", "130621.109000", "130621.109000", "130621.109000", "130621.109000", "130621.109000", "130621.109000", "130621.109000", "130621.125000", "130621.125000", "130621.125000", "130621.125000", "130641.078000", "130641.093000", "130641.093000", "130641.093000", "130641.093000", "130641.093000", "130641.093000", "130641.093000", "130641.109000", "130641.109000", "130641.109000", "130641.109000", "130641.109000", "130641.109000", "130641.109000", "130641.109000", "130641.125000", "130641.125000", "130641.125000", "130641.125000", "130701.078000", "130701.093000", "130701.093000", "130701.093000", "130701.093000", "130701.093000", "130701.109000", "130701.109000", "130701.109000", "130701.109000", "130701.109000", "130701.109000", "130701.109000", "130701.109000", "130701.125000", "130701.125000", "130701.125000", "130701.125000", "130701.125000", "130701.125000", "130721.078000", "130721.093000", "130721.093000", "130721.093000", "130721.093000", "130721.093000", "130721.109000", "130721.109000", "130721.109000", "130721.125000", "130721.125000", "130721.125000", "130721.125000", "130721.125000", "130721.125000", "130721.125000", "130721.140000", "130721.140000", "130721.140000", "130721.140000", "130741.078000", "130741.093000", "130741.093000", "130741.093000", "130741.093000", "130741.093000", "130741.093000", "130741.093000", "130741.109000", "130741.109000", "130741.109000", "130741.109000", "130741.109000", "130741.109000", "130741.109000", "130741.109000", "130741.125000", "130741.125000", "130741.125000", "130741.125000", "130801.078000", "130801.093000", "130801.093000", "130801.093000", "130801.093000", "130801.093000", "130801.093000", "130801.093000", "130801.109000", "130801.109000", "130801.109000", "130801.109000", "130801.109000", "130801.109000", "130801.109000", "130801.109000", "130801.125000", "130801.125000", "130801.125000", "130801.125000", "130821.078000", "130821.109000", "130821.125000", "130821.125000", "130821.125000", "130821.125000", "130821.125000", "130821.140000", "130821.140000", "130821.140000", "130821.140000", "130821.140000", "130821.140000", "130821.140000", "130821.156000", "130821.156000", "130821.156000", "130821.171000", "130821.171000", "130821.171000", "130841.078000", "130841.093000", "130841.093000", "130841.093000", "130841.093000", "130841.093000", "130841.093000", "130841.093000", "130841.109000", "130841.109000", "130841.109000", "130841.109000", "130841.109000", "130841.109000", "130841.109000", "130841.109000", "130841.125000", "130841.125000", "130841.125000", "130841.125000", "130901.078000", "130901.093000", "130901.093000", "130901.093000", "130901.093000", "130901.093000", "130901.093000", "130901.093000", "130901.109000", "130901.109000", "130901.109000", "130901.109000", "130901.109000", "130901.109000", "130901.109000", "130901.109000", "130901.125000", "130901.125000", "130901.125000", "130901.125000", "130921.078000", "130921.093000", "130921.093000", "130921.093000", "130921.093000", "130921.109000", "130921.109000", "130921.109000", "130921.109000", "130921.109000", "130921.125000", "130921.125000", "130921.125000", "130921.125000", "130921.125000", "130921.125000", "130921.125000", "130921.125000", "130921.140000", "130921.140000", "130941.078000", "130941.140000", "130941.140000", "130941.140000", "130941.140000", "130941.140000", "130941.156000", "130941.156000", "130941.156000", "130941.156000", "130941.156000", "130941.171000", "130941.171000", "130941.171000", "130941.171000", "130941.171000", "130941.171000", "130941.171000", "130941.171000", "130941.187000", "131001.078000", "131001.093000", "131001.093000", "131001.093000", "131001.093000", "131001.093000", "131001.109000", "131001.109000", "131001.109000", "131001.109000", "131001.109000", "131001.109000", "131001.109000", "131001.125000", "131001.125000", "131001.125000", "131001.125000", "131001.125000", "131001.125000", "131001.125000", "131021.078000", "131021.093000", "131021.093000", "131021.093000", "131021.093000", "131021.109000", "131021.109000", "131021.109000", "131021.109000", "131021.109000", "131021.109000", "131021.109000", "131021.109000", "131021.125000", "131021.125000", "131021.125000", "131021.125000", "131021.125000", "131021.125000", "131021.140000", "131041.078000", "131041.093000", "131041.093000", "131041.093000", "131041.109000", "131041.109000", "131041.109000", "131041.109000", "131041.109000", "131041.109000", "131041.125000", "131041.125000", "131041.125000", "131041.125000", "131041.125000", "131041.125000", "131041.125000", "131041.140000", "131041.140000", "131041.140000", "131101.093000", "131101.125000", "131101.140000", "131101.140000", "131101.140000", "131101.140000", "131101.140000", "131101.140000", "131101.140000", "131101.156000", "131101.156000", "131101.156000", "131101.156000", "131101.156000", "131101.156000", "131101.156000", "131101.171000", "131101.171000", "131101.171000", "131101.171000", "131121.078000", "131121.093000", "131121.093000", "131121.093000", "131121.093000", "131121.093000", "131121.093000", "131121.093000", "131121.109000", "131121.109000", "131121.109000", "131121.109000", "131121.109000", "131121.109000", "131121.109000", "131121.125000", "131121.125000", "131121.125000", "131121.125000", "131121.125000", "131128.968000", "131128.968000", "131128.984000"],
      "InstanceCreationTime": ["130601.125000", "130601.125000", "130601.125000", "130601.140000", "130601.140000", "130601.140000", "130601.140000", "130621.078000", "130621.093000", "130621.093000", "130621.093000", "130621.093000", "130621.093000", "130621.093000", "130621.093000", "130621.109000", "130621.109000", "130621.109000", "130621.109000", "130621.109000", "130621.109000", "130621.109000", "130621.109000", "130621.125000", "130621.125000", "130621.125000", "130621.125000", "130641.078000", "130641.093000", "130641.093000", "130641.093000", "130641.093000", "130641.093000", "130641.093000", "130641.093000", "130641.109000", "130641.109000", "130641.109000", "130641.109000", "130641.109000", "130641.109000", "130641.109000", "130641.109000", "130641.125000", "130641.125000", "130641.125000", "130641.125000", "130701.078000", "130701.093000", "130701.093000", "130701.093000", "130701.093000", "130701.093000", "130701.109000", "130701.109000", "130701.109000", "130701.109000", "130701.109000", "130701.109000", "130701.109000", "130701.109000", "130701.125000", "130701.125000", "130701.125000", "130701.125000", "130701.125000", "130701.125000", "130721.078000", "130721.093000", "130721.093000", "130721.093000", "130721.093000", "130721.093000", "130721.109000", "130721.109000", "130721.109000", "130721.125000", "130721.125000", "130721.125000", "130721.125000", "130721.125000", "130721.125000", "130721.125000", "130721.140000", "130721.140000", "130721.140000", "130721.140000", "130741.078000", "130741.093000", "130741.093000", "130741.093000", "130741.093000", "130741.093000", "130741.093000", "130741.093000", "130741.109000", "130741.109000", "130741.109000", "130741.109000", "130741.109000", "130741.109000", "130741.109000", "130741.109000", "130741.125000", "130741.125000", "130741.125000", "130741.125000", "130801.078000", "130801.093000", "130801.093000", "130801.093000", "130801.093000", "130801.093000", "130801.093000", "130801.093000", "130801.109000", "130801.109000", "130801.109000", "130801.109000", "130801.109000", "130801.109000", "130801.109000", "130801.109000", "130801.125000", "130801.125000", "130801.125000", "130801.125000", "130821.078000", "130821.109000", "130821.125000", "130821.125000", "130821.125000", "130821.125000", "130821.125000", "130821.140000", "130821.140000", "130821.140000", "130821.140000", "130821.140000", "130821.140000", "130821.140000", "130821.156000", "130821.156000", "130821.156000", "130821.171000", "130821.171000", "130821.171000", "130841.078000", "130841.093000", "130841.093000", "130841.093000", "130841.093000", "130841.093000", "130841.093000", "130841.093000", "130841.109000", "130841.109000", "130841.109000", "130841.109000", "130841.109000", "130841.109000", "130841.109000", "130841.109000", "130841.125000", "130841.125000", "130841.125000", "130841.125000", "130901.078000", "130901.093000", "130901.093000", "130901.093000", "130901.093000", "130901.093000", "130901.093000", "130901.093000", "130901.109000", "130901.109000", "130901.109000", "130901.109000", "130901.109000", "130901.109000", "130901.109000", "130901.109000", "130901.125000", "130901.125000", "130901.125000", "130901.125000", "130921.078000", "130921.093000", "130921.093000", "130921.093000", "130921.093000", "130921.109000", "130921.109000", "130921.109000", "130921.109000", "130921.109000", "130921.125000", "130921.125000", "130921.125000", "130921.125000", "130921.125000", "130921.125000", "130921.125000", "130921.125000", "130921.140000", "130921.140000", "130941.078000", "130941.140000", "130941.140000", "130941.140000", "130941.140000", "130941.140000", "130941.156000", "130941.156000", "130941.156000", "130941.156000", "130941.156000", "130941.171000", "130941.171000", "130941.171000", "130941.171000", "130941.171000", "130941.171000", "130941.171000", "130941.171000", "130941.187000", "131001.078000", "131001.093000", "131001.093000", "131001.093000", "131001.093000", "131001.093000", "131001.109000", "131001.109000", "131001.109000", "131001.109000", "131001.109000", "131001.109000", "131001.109000", "131001.125000", "131001.125000", "131001.125000", "131001.125000", "131001.125000", "131001.125000", "131001.125000", "131021.078000", "131021.093000", "131021.093000", "131021.093000", "131021.093000", "131021.109000", "131021.109000", "131021.109000", "131021.109000", "131021.109000", "131021.109000", "131021.109000", "131021.109000", "131021.125000", "131021.125000", "131021.125000", "131021.125000", "131021.125000", "131021.125000", "131021.140000", "131041.078000", "131041.093000", "131041.093000", "131041.093000", "131041.109000", "131041.109000", "131041.109000", "131041.109000", "131041.109000", "131041.109000", "131041.125000", "131041.125000", "131041.125000", "131041.125000", "131041.125000", "131041.125000", "131041.125000", "131041.140000", "131041.140000", "131041.140000", "131101.093000", "131101.125000", "131101.140000", "131101.140000", "131101.140000", "131101.140000", "131101.140000", "131101.140000", "131101.140000", "131101.156000", "131101.156000", "131101.156000", "131101.156000", "131101.156000", "131101.156000", "131101.156000", "131101.171000", "131101.171000", "131101.171000", "131101.171000", "131121.078000", "131121.093000", "131121.093000", "131121.093000", "131121.093000", "131121.093000", "131121.093000", "131121.093000", "131121.109000", "131121.109000", "131121.109000", "131121.109000", "131121.109000", "131121.109000", "131121.109000", "131121.125000", "131121.125000", "131121.125000", "131121.125000", "131121.125000", "131128.968000", "131128.968000", "131128.984000"],
      "InstanceNumber": [1, 2, 3, 4, 5, 6, 7, 8, 9, 10, 11, 12, 13, 14, 15, 16, 17, 18, 19, 20, 21, 22, 23, 24, 25, 26, 27, 28, 29, 30, 31, 32, 33, 34, 35, 36, 37, 38, 39, 40, 41, 42, 43, 44, 45, 46, 47, 48, 49, 50, 51, 52, 53, 54, 55, 56, 57, 58, 59, 60, 61, 62, 63, 64, 65, 66, 67, 68, 69, 70, 71, 72, 73, 74, 75, 76, 77, 78, 79, 80, 81, 82, 83, 84, 85, 86, 87, 88, 89, 90, 91, 92, 93, 94, 95, 96, 97, 98, 99, 100, 101, 102, 103, 104, 105, 106, 107, 108, 109, 110, 111, 112, 113, 114, 115, 116, 117, 118, 119, 120, 121, 122, 123, 124, 125, 126, 127, 128, 129, 130, 131, 132, 133, 134, 135, 136, 137, 138, 139, 140, 141, 142, 143, 144, 145, 146, 147, 148, 149, 150, 151, 152, 153, 154, 155, 156, 157, 158, 159, 160, 161, 162, 163, 164, 165, 166, 167, 168, 169, 170, 171, 172, 173, 174, 175, 176, 177, 178, 179, 180, 181, 182, 183, 184, 185, 186, 187, 188, 189, 190, 191, 192, 193, 194, 195, 196, 197, 198, 199, 200, 201, 202, 203, 204, 205, 206, 207, 208, 209, 210, 211, 212, 213, 214, 215, 216, 217, 218, 219, 220, 221, 222, 223, 224, 225, 226, 227, 228, 229, 230, 231, 232, 233, 234, 235, 236, 237, 238, 239, 240, 241, 242, 243, 244, 245, 246, 247, 248, 249, 250, 251, 252, 253, 254, 255, 256, 257, 258, 259, 260, 261, 262, 263, 264, 265, 266, 267, 268, 269, 270, 271, 272, 273, 274, 275, 276, 277, 278, 279, 280, 281, 282, 283, 284, 285, 286, 287, 288, 289, 290, 291, 292, 293, 294, 295, 296, 297, 298, 299, 300, 301, 302, 303, 304, 305, 306, 307, 308, 309, 310, 311, 312, 313, 314, 315, 316, 317, 318, 319, 320, 321, 322, 323, 324, 325, 326, 327, 328, 329, 330],
      "LargestImagePixelValue": [2712, 2746, 2702, 2735, 2700, 2701, 2734, 2726, 2733, 2751, 2725, 2716, 2710, 2659, 2719, 2681, 2707, 2707, 2715, 2724, 2717, 2689, 2625, 2705, 2695, 2743, 2683, 2699, 2716, 2703, 2684, 2703, 2726, 2696, 2717, 2772, 2732, 2681, 2714, 2725, 2705, 2717, 2672, 2693, 2670, 2706, 2711, 2691, 2687, 2742, 2736, 2690, 2715, 2691, 2716, 2682, 2709, 2722, 2680, 2704, 2729, 2666, 2662, 2659, 2719, 2731, 2715, 2740, 2672, 2741, 2740, 2721, 2720, 2665, 2696, 2705, 2695, 2682, 2716, 2713, 2727, 2690, 2680, 2726, 2674, 2724, 2723, 2729, 2690, 2714, 2682, 2684, 2728, 2674, 2681, 2715, 2698, 2730, 2708, 2705, 2720, 2676, 2713, 2681, 2719, 2772, 2650, 2695, 2671, 2684, 2684, 2705, 2698, 2698, 2727, 2699, 2680, 2681, 2678, 2746, 2703, 2684, 2707, 2743, 2741, 2726, 2710, 2697, 2715, 2695, 2699, 2691, 2729, 2695, 2701, 2731, 2751, 2680, 2708, 2727, 2702, 2690, 2686, 2716, 2671, 2724, 2758, 2740, 2740, 2686, 2743, 2698, 2701, 2670, 2715, 2661, 2681, 2697, 2693, 2693, 2742, 2682, 2725, 2731, 2738, 2721, 2715, 2670, 2691, 2716, 2713, 2693, 2715, 2707, 2752, 2690, 2718, 2728, 2682, 2724, 2718, 2762, 2729, 2700, 2705, 2786, 2681, 2722, 2675, 2700, 2738, 2767, 2701, 2688, 2716, 2745, 2711, 2738, 2687, 2749, 2728, 2696, 2712, 2696, 2716, 2705, 2720, 2714, 2668, 2664, 2722, 2755, 2692, 2726, 2747, 2715, 2697, 2715, 2693, 2724, 2708, 2738, 2713, 2731, 2688, 2722, 2673, 2738, 2703, 2685, 2686, 2703, 2682, 2687, 2752, 2723, 2690, 2659, 2673, 2713, 2704, 2654, 2733, 2699, 2697, 2700, 2734, 2694, 2700, 2682, 2718, 2725, 2684, 2704, 2669, 2735, 2752, 2743, 2736, 2743, 2770, 2729, 2724, 2720, 2712, 2670, 2731, 2738, 2766, 2712, 2740, 2670, 2657, 2705, 2711, 2750, 2747, 2691, 2704, 2694, 2754, 2690, 2703, 2685, 2716, 2734, 2757, 2714, 2705, 2689, 2710, 2733, 2702, 2696, 2700, 2747, 2729, 2719, 2714, 2716, 2749, 2717, 2686, 2706, 2708, 2731, 2678, 2725, 2704, 2686, 2718, 2704, 2684, 2662, 2670, 2720, 2761, 2696, 2718, 2779, 2735, 2711, 2743, 2700, 2705, 2730, 2741, 2702, 2705, 2701],
      "WindowCenter": [443.0, 443.0, 444.0, 444.0, 444.0, 443.0, 444.0, 443.0, 443.0, 444.0, 443.0, 443.0, 443.0, 444.0, 445.0, 444.0, 445.0, 445.0, 445.0, 445.0, 445.0, 444.0, 443.0, 444.0, 443.0, 443.0, 443.0, 443.0, 443.0, 443.0, 443.0, 442.0, 443.0, 442.0, 442.0, 443.0, 443.0, 442.0, 443.0, 445.0, 445.0, 444.0, 444.0, 443.0, 442.0, 442.0, 441.0, 442.0, 443.0, 445.0, 445.0, 443.0, 443.0, 443.0, 442.0, 441.0, 442.0, 443.0, 443.0, 444.0, 445.0, 444.0, 443.0, 443.0, 443.0, 443.0, 442.0, 443.0, 442.0, 443.0, 443.0, 443.0, 442.0, 441.0, 442.0, 442.0, 443.0, 443.0, 444.0, 443.0, 443.0, 443.0, 443.0, 443.0, 442.0, 443.0, 443.0, 444.0, 444.0, 444.0, 443.0, 443.0, 443.0, 443.0, 443.0, 444.0, 443.0, 443.0, 443.0, 443.0, 443.0, 443.0, 445.0, 444.0, 445.0, 446.0, 445.0, 444.0, 444.0, 443.0, 442.0, 442.0, 443.0, 443.0, 443.0, 443.0, 444.0, 443.0, 442.0, 443.0, 443.0, 442.0, 443.0, 443.0, 445.0, 444.0, 445.0, 445.0, 445.0, 444.0, 444.0, 445.0, 444.0, 444.0, 444.0, 445.0, 446.0, 445.0, 444.0, 444.0, 443.0, 443.0, 443.0, 443.0, 443.0, 444.0, 445.0, 445.0, 444.0, 444.0, 445.0, 445.0, 445.0, 445.0, 445.0, 444.0, 443.0, 444.0, 443.0, 443.0, 444.0, 444.0, 444.0, 445.0, 445.0, 445.0, 444.0, 444.0, 444.0, 443.0, 443.0, 442.0, 443.0, 443.0, 444.0, 443.0, 443.0, 443.0, 443.0, 443.0, 443.0, 443.0, 443.0, 443.0, 445.0, 447.0, 446.0, 445.0, 445.0, 444.0, 443.0, 444.0, 444.0, 444.0, 445.0, 445.0, 445.0, 445.0, 445.0, 445.0, 445.0, 444.0, 444.0, 446.0, 447.0, 445.0, 444.0, 443.0, 443.0, 443.0, 443.0, 444.0, 445.0, 445.0, 445.0, 445.0, 444.0, 445.0, 445.0, 444.0, 444.0, 444.0, 444.0, 445.0, 444.0, 445.0, 444.0, 444.0, 444.0, 443.0, 442.0, 443.0, 443.0, 444.0, 445.0, 444.0, 444.0, 444.0, 443.0, 443.0, 443.0, 442.0, 443.0, 444.0, 445.0, 446.0, 447.0, 446.0, 445.0, 444.0, 444.0, 443.0, 442.0, 443.0, 443.0, 443.0, 443.0, 444.0, 444.0, 444.0, 445.0, 445.0, 445.0, 444.0, 445.0, 444.0, 445.0, 445.0, 446.0, 446.0, 445.0, 445.0, 445.0, 445.0, 444.0, 444.0, 444.0, 443.0, 444.0, 444.0, 445.0, 445.0, 445.0, 445.0, 445.0, 445.0, 444.0, 444.0, 445.0, 443.0, 445.0, 447.0, 446.0, 445.0, 445.0, 445.0, 444.0, 444.0, 444.0, 445.0, 445.0, 445.0, 445.0, 445.0, 444.0, 444.0, 443.0, 443.0, 443.0, 444.0, 445.0, 446.0, 446.0, 445.0, 444.0, 444.0, 444.0, 443.0, 443.0, 445.0, 445.0, 446.0, 446.0, 445.0, 444.0, 443.0, 444.0, 443.0, 443.0, 443.0],
