{
  "AcquisitionMatrixPE": 104,
  "AcquisitionNumber": 1,
  "AcquisitionTime": "12:46:20.700000",
  "BandwidthPerPixelPhaseEncode": 43.054,
  "BaseResolution": 104,
  "CoilString": "C:E1_2",
  "ConversionSoftware": "dcm2niix",
  "ConversionSoftwareVersion": "v1.0.20191031",
  "DerivedVendorReportedEchoSpacing": 0.000669999,
  "DeviceSerialNumber": "18932",
  "DwellTime": 2.8e-06,
  "EchoTime": 0.02,
  "EffectiveEchoSpacing": 0.000223333,
  "FlipAngle": 30,
  "ImageComments": "Unaliased_MB2_PE2",
  "ImageOrientationPatientDICOM": [1, 2e-16, 0, -2e-16, 0.961741, -0.273959],
  "ImageType": [
    "ORIGINAL",
    "PRIMARY",
    "M",
    "MB",
    "ND",
    "MOSAIC"
],
  "ImagingFrequency": 297.229,
  "InPlanePhaseEncodingDirectionDICOM": "COL",
  "InstitutionAddress": "Richmond_Street_North_1151_London_409EF2_Ontario_CA_N6A_5B7",
  "InstitutionName": "Robarts_Reserch_Institute",
  "InstitutionalDepartmentName": "Department",
  "MRAcquisitionType": "2D",
  "MagneticFieldStrength": 6.98,
  "Manufacturer": "Siemens",
  "ManufacturersModelName": "Investigational_Device_7T",
  "Modality": "MR",
  "MultibandAccelerationFactor": 2,
  "ParallelReductionFactorInPlane": 3,
  "PartialFourier": 0.875,
  "PatientPosition": "HFS",
  "PercentPhaseFOV": 100,
  "PhaseEncodingDirection": "j-",
  "PhaseEncodingSteps": 91,
  "PhaseResolution": 1,
  "PixelBandwidth": 1717,
  "ProcedureStepDescription": "Diedrichsen_SeqRep4",
  "ProtocolName": "mbep2d_bold_mb2_p3_AP_2iso",
  "PulseSequenceDetails": "%CustomerSeq%_cmrr_mbep2d_bold",
  "ReceiveCoilName": "CFMM_8Tx32Rx",
  "ReconMatrixPE": 104,
  "RefLinesPE": 36,
  "RepetitionTime": 1,
  "ScanOptions": "PFP_FS",
  "ScanningSequence": "EP",
  "SequenceName": "epfid2d1_104",
  "SequenceVariant": "SK_SS",
  "SeriesDescription": "mbep2d_bold_mb2_p3_AP_2iso",
  "SeriesNumber": 13,
  "ShimSetting": [29, 2057, 86, 1756, 53, 131, 355, -110],
  "SliceThickness": 2,
  "SliceTiming": [0, 0.2275, 0.4575, 0.685, 0.9125, 0.1375, 0.365, 0.5925, 0.82, 0.045, 0.275, 0.5025, 0.73, 0.9575, 0.1825, 0.41, 0.64, 0.8675, 0.0925, 0.32, 0.5475, 0.775, 0, 0.2275, 0.4575, 0.685, 0.9125, 0.1375, 0.365, 0.5925, 0.82, 0.045, 0.275, 0.5025, 0.73, 0.9575, 0.1825, 0.41, 0.64, 0.8675, 0.0925, 0.32, 0.5475, 0.775],
  "SoftwareVersions": "syngo_MR_B17",
  "SpacingBetweenSlices": 2,
  "StationName": "MASTER",
  "TaskName": "dsp",
  "TotalReadoutTime": 0.0230033,
  "TxRefAmp": 120,
  "dcmmeta_affine": [
    [-2.0, -4.000000067449534e-16, 1.0958368979349813e-16, 105.4527816772461],
    [-4.000000067449534e-16, 1.9234826564788818, -0.547918438911438, -102.30016326904297],
    [0.0, 0.547918438911438, 1.9234826564788818, -44.65082550048828],
    [0.0, 0.0, 0.0, 1.0]
],
  "dcmmeta_reorient_transform": [
    [0.0, -1.0, 0.0, 103.0],
    [1.0, 0.0, 0.0, 0.0],
    [0.0, 0.0, 1.0, 0.0],
    [0.0, 0.0, 0.0, 1.0]
],
  "dcmmeta_shape": [104, 104, 44, 330],
  "dcmmeta_slice_dim": 2,
  "dcmmeta_version": 0.6,
  "global": {
    "const": {
      "AcquisitionMatrix": [104, 0, 0, 104],
      "AngioFlag": "N",
      "BitsAllocated": 16,
      "BitsStored": 12,
      "Columns": 728,
      "EchoNumbers": 1,
      "EchoTime": 20.0,
      "EchoTrainLength": 1,
      "FlipAngle": 30.0,
      "HighBit": 11,
      "ImageOrientationPatient": [1.0, 2e-16, 0.0, -2e-16, 0.96174130993141, -0.2739592173507],
      "ImagePositionPatient": [-729.45278453827, -695.94512226517, 182.73532666503],
      "ImageType": [
        "ORIGINAL",
        "PRIMARY",
        "M",
        "MB",
        "ND",
        "MOSAIC"
],
      "ImagedNucleus": "1H",
      "ImagingFrequency": 297.228759,
      "InPlanePhaseEncodingDirection": "COL",
      "MRAcquisitionType": "2D",
      "MagneticFieldStrength": 6.98,
      "Manufacturer": "SIEMENS",
      "ManufacturerModelName": "Investigational_Device_7T",
      "Modality": "MR",
      "NumberOfAverages": 1.0,
      "NumberOfPhaseEncodingSteps": 91,
      "PercentPhaseFieldOfView": 100.0,
      "PercentSampling": 100.0,
      "PerformedProcedureStepStartTime": "122510.093000",
      "PhotometricInterpretation": "MONOCHROME2",
      "PixelBandwidth": 1717.0,
      "PixelRepresentation": 0,
      "PixelSpacing": [2.0, 2.0],
      "ProtocolName": "mbep2d_bold_mb2_p3_AP 2iso",
      "RepetitionTime": 1000.0,
      "Rows": 728,
      "SAR": 0.0,
      "SamplesPerPixel": 1,
      "ScanOptions": [
        "PFP",
        "FS"
],
      "ScanningSequence": "EP",
      "SequenceName": "epfid2d1_104",
      "SequenceVariant": [
        "SK",
        "SS"
],
      "SeriesDescription": "mbep2d_bold_mb2_p3_AP 2iso",
      "SeriesNumber": 13,
      "SeriesTime": "124641.125000",
      "SliceLocation": -14.916468577237,
      "SliceThickness": 2.0,
      "SmallestImagePixelValue": 0,
      "SoftwareVersions": "syngo MR B17",
      "SpacingBetweenSlices": 2.0000000104656,
      "SpecificCharacterSet": "ISO_IR 100",
      "StudyID": "1",
      "StudyTime": "122510.031000",
      "TransmitCoilName": "CFMM_8Tx32Rx",
      "VariableFlipAngleFlag": "N",
      "WindowCenterWidthExplanation": "Algo1",
      "dBdt": 0.0},
    "slices": {}
  },
  "time": {
    "samples": {
      "AcquisitionNumber": [1, 2, 3, 4, 5, 6, 7, 8, 9, 10, 11, 12, 13, 14, 15, 16, 17, 18, 19, 20, 21, 22, 23, 24, 25, 26, 27, 28, 29, 30, 31, 32, 33, 34, 35, 36, 37, 38, 39, 40, 41, 42, 43, 44, 45, 46, 47, 48, 49, 50, 51, 52, 53, 54, 55, 56, 57, 58, 59, 60, 61, 62, 63, 64, 65, 66, 67, 68, 69, 70, 71, 72, 73, 74, 75, 76, 77, 78, 79, 80, 81, 82, 83, 84, 85, 86, 87, 88, 89, 90, 91, 92, 93, 94, 95, 96, 97, 98, 99, 100, 101, 102, 103, 104, 105, 106, 107, 108, 109, 110, 111, 112, 113, 114, 115, 116, 117, 118, 119, 120, 121, 122, 123, 124, 125, 126, 127, 128, 129, 130, 131, 132, 133, 134, 135, 136, 137, 138, 139, 140, 141, 142, 143, 144, 145, 146, 147, 148, 149, 150, 151, 152, 153, 154, 155, 156, 157, 158, 159, 160, 161, 162, 163, 164, 165, 166, 167, 168, 169, 170, 171, 172, 173, 174, 175, 176, 177, 178, 179, 180, 181, 182, 183, 184, 185, 186, 187, 188, 189, 190, 191, 192, 193, 194, 195, 196, 197, 198, 199, 200, 201, 202, 203, 204, 205, 206, 207, 208, 209, 210, 211, 212, 213, 214, 215, 216, 217, 218, 219, 220, 221, 222, 223, 224, 225, 226, 227, 228, 229, 230, 231, 232, 233, 234, 235, 236, 237, 238, 239, 240, 241, 242, 243, 244, 245, 246, 247, 248, 249, 250, 251, 252, 253, 254, 255, 256, 257, 258, 259, 260, 261, 262, 263, 264, 265, 266, 267, 268, 269, 270, 271, 272, 273, 274, 275, 276, 277, 278, 279, 280, 281, 282, 283, 284, 285, 286, 287, 288, 289, 290, 291, 292, 293, 294, 295, 296, 297, 298, 299, 300, 301, 302, 303, 304, 305, 306, 307, 308, 309, 310, 311, 312, 313, 314, 315, 316, 317, 318, 319, 320, 321, 322, 323, 324, 325, 326, 327, 328, 329, 330],
      "AcquisitionTime": ["124620.700000", "124621.705000", "124622.707500", "124623.712500", "124624.717500", "124625.720000", "124626.725000", "124627.727500", "124628.732500", "124629.737500", "124630.740000", "124631.745000", "124632.747500", "124633.752500", "124634.757500", "124635.760000", "124636.765000", "124637.767500", "124638.772500", "124639.777500", "124640.780000", "124641.785000", "124642.787500", "124643.792500", "124644.797500", "124645.800000", "124646.805000", "124647.807500", "124648.812500", "124649.817500", "124650.820000", "124651.825000", "124652.827500", "124653.832500", "124654.837500", "124655.840000", "124656.845000", "124657.850000", "124658.852500", "124659.857500", "124700.860000", "124701.865000", "124702.870000", "124703.872500", "124704.877500", "124705.880000", "124706.885000", "124707.890000", "124708.892500", "124709.897500", "124710.900000", "124711.905000", "124712.910000", "124713.912500", "124714.917500", "124715.920000", "124716.925000", "124717.930000", "124718.932500", "124719.937500", "124720.940000", "124721.945000", "124722.950000", "124723.952500", "124724.957500", "124725.960000", "124726.965000", "124727.970000", "124728.972500", "124729.977500", "124730.982500", "124731.985000", "124732.990000", "124733.992500", "124734.997500", "124736.002500", "124737.005000", "124738.010000", "124739.012500", "124740.017500", "124741.022500", "124742.025000", "124743.030000", "124744.032500", "124745.037500", "124746.042500", "124747.045000", "124748.050000", "124749.052500", "124750.057500", "124751.062500", "124752.065000", "124753.070000", "124754.072500", "124755.077500", "124756.082500", "124757.085000", "124758.090000", "124759.095000", "124800.097500", "124801.102500", "124802.105000", "124803.110000", "124804.115000", "124805.117500", "124806.122500", "124807.125000", "124808.130000", "124809.135000", "124810.137500", "124811.142500", "124812.145000", "124813.150000", "124814.155000", "124815.157500", "124816.162500", "124817.165000", "124818.170000", "124819.175000", "124820.177500", "124821.182500", "124822.185000", "124823.190000", "124824.195000", "124825.197500", "124826.202500", "124827.205000", "124828.210000", "124829.215000", "124830.217500", "124831.222500", "124832.227500", "124833.230000", "124834.235000", "124835.237500", "124836.242500", "124837.247500", "124838.250000", "124839.255000", "124840.257500", "124841.262500", "124842.267500", "124843.270000", "124844.275000", "124845.277500", "124846.282500", "124847.287500", "124848.290000", "124849.295000", "124850.297500", "124851.302500", "124852.307500", "124853.310000", "124854.315000", "124855.317500", "124856.322500", "124857.327500", "124858.330000", "124859.335000", "124900.337500", "124901.342500", "124902.347500", "124903.350000", "124904.355000", "124905.360000", "124906.362500", "124907.367500", "124908.370000", "124909.375000", "124910.380000", "124911.382500", "124912.387500", "124913.390000", "124914.395000", "124915.400000", "124916.402500", "124917.407500", "124918.410000", "124919.415000", "124920.420000", "124921.422500", "124922.427500", "124923.430000", "124924.435000", "124925.440000", "124926.442500", "124927.447500", "124928.450000", "124929.455000", "124930.460000", "124931.462500", "124932.467500", "124933.472500", "124934.475000", "124935.480000", "124936.482500", "124937.487500", "124938.492500", "124939.495000", "124940.500000", "124941.502500", "124942.507500", "124943.512500", "124944.515000", "124945.520000", "124946.522500", "124947.527500", "124948.532500", "124949.535000", "124950.540000", "124951.542500", "124952.547500", "124953.552500", "124954.555000", "124955.560000", "124956.562500", "124957.567500", "124958.572500", "124959.575000", "125000.580000", "125001.582500", "125002.587500", "125003.592500", "125004.595000", "125005.600000", "125006.605000", "125007.607500", "125008.612500", "125009.615000", "125010.620000", "125011.625000", "125012.627500", "125013.632500", "125014.635000", "125015.640000", "125016.645000", "125017.647500", "125018.652500", "125019.655000", "125020.660000", "125021.665000", "125022.667500", "125023.672500", "125024.675000", "125025.680000", "125026.685000", "125027.687500", "125028.692500", "125029.695000", "125030.700000", "125031.705000", "125032.707500", "125033.712500", "125034.717500", "125035.720000", "125036.725000", "125037.727500", "125038.732500", "125039.737500", "125040.740000", "125041.745000", "125042.747500", "125043.752500", "125044.757500", "125045.760000", "125046.765000", "125047.767500", "125048.772500", "125049.777500", "125050.780000", "125051.785000", "125052.787500", "125053.792500", "125054.797500", "125055.800000", "125056.805000", "125057.807500", "125058.812500", "125059.817500", "125100.820000", "125101.825000", "125102.827500", "125103.832500", "125104.837500", "125105.840000", "125106.845000", "125107.850000", "125108.852500", "125109.857500", "125110.860000", "125111.865000", "125112.870000", "125113.872500", "125114.877500", "125115.880000", "125116.885000", "125117.890000", "125118.892500", "125119.897500", "125120.900000", "125121.905000", "125122.910000", "125123.912500", "125124.917500", "125125.920000", "125126.925000", "125127.930000", "125128.932500", "125129.937500", "125130.940000", "125131.945000", "125132.950000", "125133.952500", "125134.957500", "125135.960000", "125136.965000", "125137.970000", "125138.972500", "125139.977500", "125140.982500", "125141.985000", "125142.990000", "125143.992500", "125144.997500", "125146.002500", "125147.005000", "125148.010000", "125149.012500", "125150.017500", "125151.022500"],
      "ContentTime": ["124641.125000", "124641.125000", "124641.125000", "124641.140000", "124641.140000", "124641.140000", "124641.140000", "124641.140000", "124641.140000", "124641.140000", "124641.140000", "124641.156000", "124641.156000", "124641.156000", "124641.156000", "124641.156000", "124641.156000", "124641.171000", "124641.171000", "124701.078000", "124701.093000", "124701.093000", "124701.093000", "124701.093000", "124701.109000", "124701.109000", "124701.109000", "124701.109000", "124701.125000", "124701.125000", "124701.125000", "124701.125000", "124701.125000", "124701.125000", "124701.140000", "124701.140000", "124701.140000", "124701.140000", "124701.140000", "124721.078000", "124721.093000", "124721.093000", "124721.093000", "124721.109000", "124721.109000", "124721.109000", "124721.109000", "124721.109000", "124721.109000", "124721.109000", "124721.125000", "124721.125000", "124721.125000", "124721.125000", "124721.125000", "124721.125000", "124721.140000", "124721.140000", "124721.140000", "124741.078000", "124741.093000", "124741.093000", "124741.093000", "124741.093000", "124741.093000", "124741.093000", "124741.093000", "124741.109000", "124741.109000", "124741.109000", "124741.109000", "124741.109000", "124741.109000", "124741.109000", "124741.109000", "124741.125000", "124741.125000", "124741.125000", "124741.125000", "124801.078000", "124801.093000", "124801.093000", "124801.109000", "124801.109000", "124801.109000", "124801.109000", "124801.109000", "124801.125000", "124801.125000", "124801.125000", "124801.125000", "124801.125000", "124801.125000", "124801.125000", "124801.125000", "124801.140000", "124801.140000", "124801.140000", "124801.140000", "124821.078000", "124821.093000", "124821.093000", "124821.093000", "124821.093000", "124821.109000", "124821.109000", "124821.109000", "124821.109000", "124821.109000", "124821.109000", "124821.109000", "124821.125000", "124821.125000", "124821.125000", "124821.125000", "124821.125000", "124821.125000", "124821.125000", "124821.125000", "124841.078000", "124841.093000", "124841.093000", "124841.093000", "124841.093000", "124841.093000", "124841.109000", "124841.109000", "124841.109000", "124841.109000", "124841.109000", "124841.125000", "124841.125000", "124841.125000", "124841.125000", "124841.125000", "124841.125000", "124841.125000", "124841.140000", "124841.140000", "124901.078000", "124901.093000", "124901.093000", "124901.093000", "124901.093000", "124901.093000", "124901.093000", "124901.093000", "124901.109000", "124901.109000", "124901.109000", "124901.109000", "124901.109000", "124901.109000", "124901.109000", "124901.109000", "124901.125000", "124901.125000", "124901.125000", "124901.125000", "124921.078000", "124921.093000", "124921.093000", "124921.093000", "124921.093000", "124921.093000", "124921.093000", "124921.093000", "124921.109000", "124921.109000", "124921.109000", "124921.109000", "124921.109000", "124921.125000", "124921.125000", "124921.125000", "124921.125000", "124921.125000", "124921.125000", "124921.125000", "124941.078000", "124941.093000", "124941.093000", "124941.093000", "124941.093000", "124941.109000", "124941.109000", "124941.109000", "124941.109000", "124941.109000", "124941.109000", "124941.109000", "124941.109000", "124941.125000", "124941.125000", "124941.125000", "124941.125000", "124941.125000", "124941.140000", "124941.140000", "125001.093000", "125001.093000", "125001.093000", "125001.093000", "125001.093000", "125001.093000", "125001.093000", "125001.093000", "125001.109000", "125001.109000", "125001.109000", "125001.109000", "125001.109000", "125001.125000", "125001.125000", "125001.125000", "125001.125000", "125001.125000", "125001.125000", "125001.140000", "125021.078000", "125021.093000", "125021.093000", "125021.093000", "125021.109000", "125021.109000", "125021.109000", "125021.109000", "125021.109000", "125021.109000", "125021.125000", "125021.125000", "125021.125000", "125021.125000", "125021.125000", "125021.125000", "125021.140000", "125021.140000", "125021.140000", "125021.140000", "125041.078000", "125041.093000", "125041.093000", "125041.093000", "125041.093000", "125041.093000", "125041.093000", "125041.093000", "125041.109000", "125041.109000", "125041.109000", "125041.109000", "125041.109000", "125041.125000", "125041.125000", "125041.125000", "125041.125000", "125041.125000", "125041.125000", "125041.125000", "125101.078000", "125101.093000", "125101.093000", "125101.093000", "125101.093000", "125101.093000", "125101.093000", "125101.093000", "125101.109000", "125101.109000", "125101.109000", "125101.109000", "125101.109000", "125101.109000", "125101.109000", "125101.125000", "125101.125000", "125101.125000", "125101.125000", "125101.125000", "125121.078000", "125121.093000", "125121.093000", "125121.093000", "125121.109000", "125121.109000", "125121.109000", "125121.109000", "125121.109000", "125121.109000", "125121.109000", "125121.125000", "125121.125000", "125121.125000", "125121.125000", "125121.125000", "125121.125000", "125121.125000", "125121.125000", "125121.140000", "125141.078000", "125141.093000", "125141.093000", "125141.093000", "125141.093000", "125141.093000", "125141.093000", "125141.093000", "125141.109000", "125141.109000", "125141.109000", "125141.109000", "125141.109000", "125141.109000", "125141.109000", "125141.109000", "125141.125000", "125141.125000", "125141.125000", "125141.140000", "125156.093000", "125156.093000", "125156.109000", "125156.109000", "125156.109000", "125156.125000", "125156.125000", "125156.125000", "125156.125000", "125156.125000", "125156.125000"],
      "InstanceCreationTime": ["124641.125000", "124641.125000", "124641.125000", "124641.140000", "124641.140000", "124641.140000", "124641.140000", "124641.140000", "124641.140000", "124641.140000", "124641.140000", "124641.156000", "124641.156000", "124641.156000", "124641.156000", "124641.156000", "124641.156000", "124641.171000", "124641.171000", "124701.078000", "124701.093000", "124701.093000", "124701.093000", "124701.093000", "124701.109000", "124701.109000", "124701.109000", "124701.109000", "124701.125000", "124701.125000", "124701.125000", "124701.125000", "124701.125000", "124701.125000", "124701.140000", "124701.140000", "124701.140000", "124701.140000", "124701.140000", "124721.078000", "124721.093000", "124721.093000", "124721.093000", "124721.109000", "124721.109000", "124721.109000", "124721.109000", "124721.109000", "124721.109000", "124721.109000", "124721.125000", "124721.125000", "124721.125000", "124721.125000", "124721.125000", "124721.125000", "124721.140000", "124721.140000", "124721.140000", "124741.078000", "124741.093000", "124741.093000", "124741.093000", "124741.093000", "124741.093000", "124741.093000", "124741.093000", "124741.109000", "124741.109000", "124741.109000", "124741.109000", "124741.109000", "124741.109000", "124741.109000", "124741.109000", "124741.125000", "124741.125000", "124741.125000", "124741.125000", "124801.078000", "124801.093000", "124801.093000", "124801.109000", "124801.109000", "124801.109000", "124801.109000", "124801.109000", "124801.125000", "124801.125000", "124801.125000", "124801.125000", "124801.125000", "124801.125000", "124801.125000", "124801.125000", "124801.140000", "124801.140000", "124801.140000", "124801.140000", "124821.078000", "124821.093000", "124821.093000", "124821.093000", "124821.093000", "124821.109000", "124821.109000", "124821.109000", "124821.109000", "124821.109000", "124821.109000", "124821.109000", "124821.125000", "124821.125000", "124821.125000", "124821.125000", "124821.125000", "124821.125000", "124821.125000", "124821.125000", "124841.078000", "124841.093000", "124841.093000", "124841.093000", "124841.093000", "124841.093000", "124841.109000", "124841.109000", "124841.109000", "124841.109000", "124841.109000", "124841.125000", "124841.125000", "124841.125000", "124841.125000", "124841.125000", "124841.125000", "124841.125000", "124841.140000", "124841.140000", "124901.078000", "124901.093000", "124901.093000", "124901.093000", "124901.093000", "124901.093000", "124901.093000", "124901.093000", "124901.109000", "124901.109000", "124901.109000", "124901.109000", "124901.109000", "124901.109000", "124901.109000", "124901.109000", "124901.125000", "124901.125000", "124901.125000", "124901.125000", "124921.078000", "124921.093000", "124921.093000", "124921.093000", "124921.093000", "124921.093000", "124921.093000", "124921.093000", "124921.109000", "124921.109000", "124921.109000", "124921.109000", "124921.109000", "124921.125000", "124921.125000", "124921.125000", "124921.125000", "124921.125000", "124921.125000", "124921.125000", "124941.078000", "124941.093000", "124941.093000", "124941.093000", "124941.093000", "124941.109000", "124941.109000", "124941.109000", "124941.109000", "124941.109000", "124941.109000", "124941.109000", "124941.109000", "124941.125000", "124941.125000", "124941.125000", "124941.125000", "124941.125000", "124941.140000", "124941.140000", "125001.093000", "125001.093000", "125001.093000", "125001.093000", "125001.093000", "125001.093000", "125001.093000", "125001.093000", "125001.109000", "125001.109000", "125001.109000", "125001.109000", "125001.109000", "125001.125000", "125001.125000", "125001.125000", "125001.125000", "125001.125000", "125001.125000", "125001.140000", "125021.078000", "125021.093000", "125021.093000", "125021.093000", "125021.109000", "125021.109000", "125021.109000", "125021.109000", "125021.109000", "125021.109000", "125021.125000", "125021.125000", "125021.125000", "125021.125000", "125021.125000", "125021.125000", "125021.140000", "125021.140000", "125021.140000", "125021.140000", "125041.078000", "125041.093000", "125041.093000", "125041.093000", "125041.093000", "125041.093000", "125041.093000", "125041.093000", "125041.109000", "125041.109000", "125041.109000", "125041.109000", "125041.109000", "125041.125000", "125041.125000", "125041.125000", "125041.125000", "125041.125000", "125041.125000", "125041.125000", "125101.078000", "125101.093000", "125101.093000", "125101.093000", "125101.093000", "125101.093000", "125101.093000", "125101.093000", "125101.109000", "125101.109000", "125101.109000", "125101.109000", "125101.109000", "125101.109000", "125101.109000", "125101.125000", "125101.125000", "125101.125000", "125101.125000", "125101.125000", "125121.078000", "125121.093000", "125121.093000", "125121.093000", "125121.109000", "125121.109000", "125121.109000", "125121.109000", "125121.109000", "125121.109000", "125121.109000", "125121.125000", "125121.125000", "125121.125000", "125121.125000", "125121.125000", "125121.125000", "125121.125000", "125121.125000", "125121.140000", "125141.078000", "125141.093000", "125141.093000", "125141.093000", "125141.093000", "125141.093000", "125141.093000", "125141.093000", "125141.109000", "125141.109000", "125141.109000", "125141.109000", "125141.109000", "125141.109000", "125141.109000", "125141.109000", "125141.125000", "125141.125000", "125141.125000", "125141.140000", "125156.093000", "125156.093000", "125156.109000", "125156.109000", "125156.109000", "125156.125000", "125156.125000", "125156.125000", "125156.125000", "125156.125000", "125156.125000"],
      "InstanceNumber": [1, 2, 3, 4, 5, 6, 7, 8, 9, 10, 11, 12, 13, 14, 15, 16, 17, 18, 19, 20, 21, 22, 23, 24, 25, 26, 27, 28, 29, 30, 31, 32, 33, 34, 35, 36, 37, 38, 39, 40, 41, 42, 43, 44, 45, 46, 47, 48, 49, 50, 51, 52, 53, 54, 55, 56, 57, 58, 59, 60, 61, 62, 63, 64, 65, 66, 67, 68, 69, 70, 71, 72, 73, 74, 75, 76, 77, 78, 79, 80, 81, 82, 83, 84, 85, 86, 87, 88, 89, 90, 91, 92, 93, 94, 95, 96, 97, 98, 99, 100, 101, 102, 103, 104, 105, 106, 107, 108, 109, 110, 111, 112, 113, 114, 115, 116, 117, 118, 119, 120, 121, 122, 123, 124, 125, 126, 127, 128, 129, 130, 131, 132, 133, 134, 135, 136, 137, 138, 139, 140, 141, 142, 143, 144, 145, 146, 147, 148, 149, 150, 151, 152, 153, 154, 155, 156, 157, 158, 159, 160, 161, 162, 163, 164, 165, 166, 167, 168, 169, 170, 171, 172, 173, 174, 175, 176, 177, 178, 179, 180, 181, 182, 183, 184, 185, 186, 187, 188, 189, 190, 191, 192, 193, 194, 195, 196, 197, 198, 199, 200, 201, 202, 203, 204, 205, 206, 207, 208, 209, 210, 211, 212, 213, 214, 215, 216, 217, 218, 219, 220, 221, 222, 223, 224, 225, 226, 227, 228, 229, 230, 231, 232, 233, 234, 235, 236, 237, 238, 239, 240, 241, 242, 243, 244, 245, 246, 247, 248, 249, 250, 251, 252, 253, 254, 255, 256, 257, 258, 259, 260, 261, 262, 263, 264, 265, 266, 267, 268, 269, 270, 271, 272, 273, 274, 275, 276, 277, 278, 279, 280, 281, 282, 283, 284, 285, 286, 287, 288, 289, 290, 291, 292, 293, 294, 295, 296, 297, 298, 299, 300, 301, 302, 303, 304, 305, 306, 307, 308, 309, 310, 311, 312, 313, 314, 315, 316, 317, 318, 319, 320, 321, 322, 323, 324, 325, 326, 327, 328, 329, 330],
      "LargestImagePixelValue": [2692, 2724, 2668, 2707, 2653, 2654, 2621, 2696, 2673, 2635, 2724, 2728, 2696, 2623, 2668, 2688, 2625, 2666, 2570, 2630, 2677, 2598, 2547, 2586, 2670, 2623, 2614, 2665, 2662, 2627, 2696, 2659, 2620, 2648, 2620, 2622, 2637, 2681, 2625, 2689, 2603, 2653, 2682, 2615, 2645, 2656, 2673, 2653, 2584, 2693, 2708, 2628, 2609, 2654, 2671, 2711, 2702, 2683, 2557, 2621, 2722, 2635, 2626, 2646, 2700, 2661, 2621, 2677, 2612, 2696, 2632, 2628, 2653, 2643, 2612, 2672, 2716, 2603, 2673, 2702, 2651, 2680, 2604, 2537, 2655, 2695, 2681, 2663, 2642, 2590, 2711, 2721, 2642, 2603, 2650, 2735, 2677, 2553, 2666, 2627, 2622, 2657, 2667, 2597, 2645, 2647, 2718, 2580, 2629, 2684, 2718, 2649, 2574, 2716, 2683, 2643, 2629, 2661, 2654, 2633, 2694, 2728, 2656, 2644, 2640, 2631, 2601, 2652, 2725, 2619, 2680, 2705, 2660, 2601, 2674, 2734, 2704, 2655, 2578, 2747, 2709, 2656, 2561, 2633, 2684, 2638, 2636, 2678, 2668, 2645, 2632, 2704, 2641, 2664, 2564, 2639, 2643, 2616, 2588, 2691, 2652, 2712, 2638, 2686, 2708, 2688, 2603, 2669, 2597, 2632, 2715, 2676, 2619, 2670, 2698, 2724, 2668, 2702, 2632, 2655, 2567, 2668, 2683, 2619, 2599, 2674, 2700, 2707, 2635, 2662, 2695, 2689, 2705, 2682, 2722, 2722, 2682, 2686, 2662, 2618, 2696, 2700, 2670, 2587, 2749, 2694, 2684, 2641, 2693, 2677, 2712, 2711, 2640, 2706, 2662, 2693, 2672, 2650, 2679, 2715, 2713, 2626, 2702, 2691, 2656, 2700, 2709, 2665, 2649, 2666, 2733, 2716, 2712, 2724, 2663, 2707, 2632, 2707, 2613, 2648, 2670, 2763, 2715, 2617, 2659, 2708, 2681, 2749, 2649, 2638, 2676, 2704, 2685, 2674, 2651, 2665, 2701, 2606, 2618, 2663, 2690, 2659, 2623, 2676, 2688, 2664, 2656, 2618, 2560, 2610, 2720, 2638, 2611, 2631, 2639, 2717, 2710, 2650, 2634, 2612, 2674, 2641, 2660, 2672, 2642, 2679, 2703, 2728, 2633, 2681, 2709, 2656, 2672, 2616, 2721, 2699, 2674, 2633, 2653, 2716, 2682, 2701, 2696, 2585, 2611, 2638, 2696, 2648, 2620, 2748, 2675, 2660, 2685, 2716, 2629, 2717, 2693, 2634, 2670, 2702, 2654, 2717, 2665, 2666, 2658, 2656, 2712, 2648, 2647, 2728],
      "WindowCenter": [449.0, 448.0, 446.0, 446.0, 446.0, 446.0, 446.0, 446.0, 446.0, 446.0, 447.0, 447.0, 447.0, 447.0, 446.0, 447.0, 447.0, 447.0, 447.0, 448.0, 448.0, 448.0, 447.0, 446.0, 446.0, 445.0, 445.0, 446.0, 446.0, 445.0, 445.0, 445.0, 445.0, 444.0, 444.0, 445.0, 445.0, 446.0, 446.0, 447.0, 447.0, 447.0, 445.0, 445.0, 444.0, 445.0, 445.0, 446.0, 445.0, 447.0, 447.0, 446.0, 446.0, 447.0, 446.0, 446.0, 446.0, 445.0, 445.0, 445.0, 446.0, 445.0, 445.0, 444.0, 445.0, 445.0, 445.0, 445.0, 446.0, 447.0, 448.0, 446.0, 446.0, 445.0, 444.0, 444.0, 444.0, 445.0, 447.0, 448.0, 447.0, 447.0, 445.0, 444.0, 445.0, 445.0, 445.0, 445.0, 445.0, 445.0, 446.0, 447.0, 446.0, 446.0, 447.0, 447.0, 446.0, 445.0, 445.0, 445.0, 445.0, 445.0, 445.0, 445.0, 445.0, 445.0, 445.0, 445.0, 445.0, 446.0, 446.0, 446.0, 446.0, 447.0, 447.0, 447.0, 446.0, 446.0, 445.0, 445.0, 445.0, 445.0, 446.0, 447.0, 448.0, 448.0, 446.0, 446.0, 445.0, 445.0, 445.0, 446.0, 447.0, 447.0, 447.0, 447.0, 446.0, 445.0, 444.0, 445.0, 446.0, 446.0, 446.0, 446.0, 446.0, 445.0, 445.0, 445.0, 446.0, 446.0, 446.0, 448.0, 449.0, 449.0, 447.0, 446.0, 445.0, 444.0, 444.0, 445.0, 445.0, 446.0, 446.0, 447.0, 448.0, 448.0, 448.0, 448.0, 447.0, 447.0, 446.0, 446.0, 446.0, 446.0, 447.0, 447.0, 447.0, 447.0, 447.0, 447.0, 446.0, 447.0, 447.0, 447.0, 446.0, 447.0, 447.0, 447.0, 445.0, 445.0, 445.0, 445.0, 445.0, 445.0, 445.0, 447.0, 447.0, 448.0, 448.0, 447.0, 447.0, 446.0, 446.0, 445.0, 446.0, 447.0, 447.0, 447.0, 447.0, 448.0, 448.0, 449.0, 448.0, 448.0, 447.0, 446.0, 445.0, 444.0, 445.0, 445.0, 446.0, 447.0, 447.0, 448.0, 447.0, 446.0, 445.0, 445.0, 444.0, 445.0, 446.0, 447.0, 447.0, 448.0, 448.0, 448.0, 448.0, 448.0, 447.0, 447.0, 446.0, 447.0, 446.0, 446.0, 446.0, 448.0, 448.0, 448.0, 446.0, 446.0, 445.0, 445.0, 445.0, 447.0, 447.0, 447.0, 447.0, 446.0, 446.0, 446.0, 446.0, 446.0, 446.0, 446.0, 446.0, 446.0, 446.0, 447.0, 446.0, 446.0, 447.0, 446.0, 446.0, 447.0, 447.0, 447.0, 448.0, 447.0, 447.0, 447.0, 447.0, 446.0, 447.0, 447.0, 448.0, 449.0, 449.0, 448.0, 446.0, 446.0, 446.0, 446.0, 446.0, 447.0, 448.0, 448.0, 448.0, 448.0, 448.0, 448.0, 448.0, 448.0, 448.0, 446.0, 446.0, 446.0, 446.0, 446.0, 446.0, 447.0, 447.0, 447.0, 447.0, 446.0, 446.0, 447.0, 448.0, 448.0, 448.0, 448.0, 448.0, 448.0, 447.0, 446.0, 445.0, 445.0, 445.0, 445.0, 445.0, 446.0],
