{
  "AcquisitionMatrixPE": 104,
  "AcquisitionNumber": 1,
  "AcquisitionTime": "09:26:19.015000",
  "BandwidthPerPixelPhaseEncode": 43.054,
  "BaseResolution": 104,
  "CoilString": "C:E1_2",
  "ConversionSoftware": "dcm2niix",
  "ConversionSoftwareVersion": "v1.0.20191031",
  "DerivedVendorReportedEchoSpacing": 0.000669999,
  "DeviceSerialNumber": "18932",
  "DwellTime": 2.8e-06,
  "EchoTime": 0.02,
  "EffectiveEchoSpacing": 0.000223333,
  "FlipAngle": 30,
  "ImageComments": "Unaliased_MB2_PE2",
  "ImageOrientationPatientDICOM": [1, 0, 0, 0, 0.992546, -0.121869],
  "ImageType": [
    "ORIGINAL",
    "PRIMARY",
    "M",
    "MB",
    "ND",
    "MOSAIC"
],
  "ImagingFrequency": 297.23,
  "InPlanePhaseEncodingDirectionDICOM": "COL",
  "InstitutionAddress": "Richmond_Street_North_1151_London_409EF2_Ontario_CA_N6A_5B7",
  "InstitutionName": "Robarts_Reserch_Institute",
  "InstitutionalDepartmentName": "Department",
  "MRAcquisitionType": "2D",
  "MagneticFieldStrength": 6.98,
  "Manufacturer": "Siemens",
  "ManufacturersModelName": "Investigational_Device_7T",
  "Modality": "MR",
  "MultibandAccelerationFactor": 2,
  "ParallelReductionFactorInPlane": 3,
  "PartialFourier": 0.875,
  "PatientPosition": "HFS",
  "PercentPhaseFOV": 100,
  "PhaseEncodingDirection": "j-",
  "PhaseEncodingSteps": 91,
  "PhaseResolution": 1,
  "PixelBandwidth": 1717,
  "ProcedureStepDescription": "Diedrichsen_SeqRep4",
  "ProtocolName": "mbep2d_bold_mb2_p3_AP_2iso",
  "PulseSequenceDetails": "%CustomerSeq%_cmrr_mbep2d_bold",
  "ReceiveCoilName": "CFMM_8Tx32Rx",
  "ReconMatrixPE": 104,
  "RefLinesPE": 36,
  "RepetitionTime": 1,
  "ScanOptions": "PFP_FS",
  "ScanningSequence": "EP",
  "SequenceName": "epfid2d1_104",
  "SequenceVariant": "SK_SS",
  "SeriesDescription": "mbep2d_bold_mb2_p3_AP_2iso",
  "SeriesNumber": 16,
  "ShimSetting": [-39, 2025, 376, 241, 228, 77, -97, -67],
  "SliceThickness": 2,
  "SliceTiming": [0, 0.2275, 0.455, 0.685, 0.9125, 0.1375, 0.365, 0.5925, 0.82, 0.045, 0.2725, 0.5025, 0.73, 0.9575, 0.1825, 0.41, 0.6375, 0.8675, 0.09, 0.32, 0.5475, 0.775, 0, 0.2275, 0.455, 0.685, 0.9125, 0.1375, 0.365, 0.5925, 0.82, 0.045, 0.2725, 0.5025, 0.73, 0.9575, 0.1825, 0.41, 0.6375, 0.8675, 0.09, 0.32, 0.5475, 0.775],
  "SoftwareVersions": "syngo_MR_B17",
  "SpacingBetweenSlices": 2,
  "StationName": "MASTER",
  "TaskName": "dsp",
  "TotalReadoutTime": 0.0230033,
  "TxRefAmp": 120,
  "dcmmeta_affine": [
    [-2.0, 0.0, 0.0, 108.35835266113281],
    [0.0, 1.985092282295227, -0.24373869597911835, -107.62377166748047],
    [0.0, 0.24373868107795715, 1.985092282295227, -34.82061767578125],
    [0.0, 0.0, 0.0, 1.0]
],
  "dcmmeta_reorient_transform": [
    [0.0, -1.0, 0.0, 103.0],
    [1.0, 0.0, 0.0, 0.0],
    [0.0, 0.0, 1.0, 0.0],
    [0.0, 0.0, 0.0, 1.0]
],
  "dcmmeta_shape": [104, 104, 44, 330],
  "dcmmeta_slice_dim": 2,
  "dcmmeta_version": 0.6,
  "global": {
    "const": {
      "AcquisitionMatrix": [104, 0, 0, 104],
      "AngioFlag": "N",
      "BitsAllocated": 16,
      "BitsStored": 12,
      "Columns": 728,
      "EchoNumbers": 1,
      "EchoTime": 20.0,
      "EchoTrainLength": 1,
      "FlipAngle": 30.0,
      "HighBit": 11,
      "ImageOrientationPatient": [1.0, 0.0, 0.0, 0.0, 0.99254615167353, -0.1218693431428],
      "ImagePositionPatient": [-732.35835361481, -716.18953612814, 66.330935824086],
      "ImageType": [
        "ORIGINAL",
        "PRIMARY",
        "M",
        "MB",
        "ND",
        "MOSAIC"
],
      "ImagedNucleus": "1H",
      "ImagingFrequency": 297.230147,
      "InPlanePhaseEncodingDirection": "COL",
      "MRAcquisitionType": "2D",
      "MagneticFieldStrength": 6.98,
      "Manufacturer": "SIEMENS",
      "ManufacturerModelName": "Investigational_Device_7T",
      "Modality": "MR",
      "NumberOfAverages": 1.0,
      "NumberOfPhaseEncodingSteps": 91,
      "PercentPhaseFieldOfView": 100.0,
      "PercentSampling": 100.0,
      "PerformedProcedureStepStartTime": "085638.812000",
      "PhotometricInterpretation": "MONOCHROME2",
      "PixelBandwidth": 1717.0,
      "PixelRepresentation": 0,
      "PixelSpacing": [2.0, 2.0],
      "ProtocolName": "mbep2d_bold_mb2_p3_AP 2iso",
      "RepetitionTime": 1000.0,
      "Rows": 728,
      "SAR": 0.0,
      "SamplesPerPixel": 1,
      "ScanOptions": [
        "PFP",
        "FS"
],
      "ScanningSequence": "EP",
      "SequenceName": "epfid2d1_104",
      "SequenceVariant": [
        "SK",
        "SS"
],
      "SeriesDescription": "mbep2d_bold_mb2_p3_AP 2iso",
      "SeriesNumber": 16,
      "SeriesTime": "092655.375000",
      "SliceLocation": -21.445033244596,
      "SliceThickness": 2.0,
      "SmallestImagePixelValue": 0,
      "SoftwareVersions": "syngo MR B17",
      "SpacingBetweenSlices": 2.0000000380287,
      "SpecificCharacterSet": "ISO_IR 100",
      "StudyID": "1",
      "StudyTime": "085638.765000",
      "TransmitCoilName": "CFMM_8Tx32Rx",
      "VariableFlipAngleFlag": "N",
      "WindowCenterWidthExplanation": "Algo1",
      "dBdt": 0.0},
    "slices": {}
  },
  "time": {
    "samples": {
      "AcquisitionNumber": [1, 2, 3, 4, 5, 6, 7, 8, 9, 10, 11, 12, 13, 14, 15, 16, 17, 18, 19, 20, 21, 22, 23, 24, 25, 26, 27, 28, 29, 30, 31, 32, 33, 34, 35, 36, 37, 38, 39, 40, 41, 42, 43, 44, 45, 46, 47, 48, 49, 50, 51, 52, 53, 54, 55, 56, 57, 58, 59, 60, 61, 62, 63, 64, 65, 66, 67, 68, 69, 70, 71, 72, 73, 74, 75, 76, 77, 78, 79, 80, 81, 82, 83, 84, 85, 86, 87, 88, 89, 90, 91, 92, 93, 94, 95, 96, 97, 98, 99, 100, 101, 102, 103, 104, 105, 106, 107, 108, 109, 110, 111, 112, 113, 114, 115, 116, 117, 118, 119, 120, 121, 122, 123, 124, 125, 126, 127, 128, 129, 130, 131, 132, 133, 134, 135, 136, 137, 138, 139, 140, 141, 142, 143, 144, 145, 146, 147, 148, 149, 150, 151, 152, 153, 154, 155, 156, 157, 158, 159, 160, 161, 162, 163, 164, 165, 166, 167, 168, 169, 170, 171, 172, 173, 174, 175, 176, 177, 178, 179, 180, 181, 182, 183, 184, 185, 186, 187, 188, 189, 190, 191, 192, 193, 194, 195, 196, 197, 198, 199, 200, 201, 202, 203, 204, 205, 206, 207, 208, 209, 210, 211, 212, 213, 214, 215, 216, 217, 218, 219, 220, 221, 222, 223, 224, 225, 226, 227, 228, 229, 230, 231, 232, 233, 234, 235, 236, 237, 238, 239, 240, 241, 242, 243, 244, 245, 246, 247, 248, 249, 250, 251, 252, 253, 254, 255, 256, 257, 258, 259, 260, 261, 262, 263, 264, 265, 266, 267, 268, 269, 270, 271, 272, 273, 274, 275, 276, 277, 278, 279, 280, 281, 282, 283, 284, 285, 286, 287, 288, 289, 290, 291, 292, 293, 294, 295, 296, 297, 298, 299, 300, 301, 302, 303, 304, 305, 306, 307, 308, 309, 310, 311, 312, 313, 314, 315, 316, 317, 318, 319, 320, 321, 322, 323, 324, 325, 326, 327, 328, 329, 330],
      "AcquisitionTime": ["092619.015000", "092620.020000", "092621.022500", "092622.027500", "092623.030000", "092624.035000", "092625.040000", "092626.042500", "092627.047500", "092628.050000", "092629.055000", "092630.060000", "092631.062500", "092632.067500", "092633.070000", "092634.075000", "092635.080000", "092636.082500", "092637.087500", "092638.090000", "092639.095000", "092640.100000", "092641.102500", "092642.107500", "092643.110000", "092644.115000", "092645.120000", "092646.122500", "092647.127500", "092648.132500", "092649.135000", "092650.140000", "092651.142500", "092652.147500", "092653.152500", "092654.155000", "092655.160000", "092656.162500", "092657.167500", "092658.172500", "092659.175000", "092700.180000", "092701.182500", "092702.187500", "092703.192500", "092704.195000", "092705.200000", "092706.202500", "092707.207500", "092708.212500", "092709.215000", "092710.220000", "092711.222500", "092712.227500", "092713.232500", "092714.235000", "092715.240000", "092716.245000", "092717.247500", "092718.252500", "092719.255000", "092720.260000", "092721.265000", "092722.267500", "092723.272500", "092724.275000", "092725.280000", "092726.285000", "092727.287500", "092728.292500", "092729.295000", "092730.300000", "092731.305000", "092732.307500", "092733.312500", "092734.315000", "092735.320000", "092736.325000", "092737.327500", "092738.332500", "092739.335000", "092740.340000", "092741.345000", "092742.347500", "092743.352500", "092744.355000", "092745.360000", "092746.365000", "092747.367500", "092748.372500", "092749.377500", "092750.380000", "092751.385000", "092752.387500", "092753.392500", "092754.397500", "092755.400000", "092756.405000", "092757.407500", "092758.412500", "092759.417500", "092800.420000", "092801.425000", "092802.427500", "092803.432500", "092804.437500", "092805.440000", "092806.445000", "092807.447500", "092808.452500", "092809.457500", "092810.460000", "092811.465000", "092812.467500", "092813.472500", "092814.477500", "092815.480000", "092816.485000", "092817.490000", "092818.492500", "092819.497500", "092820.500000", "092821.505000", "092822.510000", "092823.512500", "092824.517500", "092825.520000", "092826.525000", "092827.530000", "092828.532500", "092829.537500", "092830.540000", "092831.545000", "092832.550000", "092833.552500", "092834.557500", "092835.560000", "092836.565000", "092837.570000", "092838.572500", "092839.577500", "092840.580000", "092841.585000", "092842.590000", "092843.592500", "092844.597500", "092845.600000", "092846.605000", "092847.610000", "092848.612500", "092849.617500", "092850.622500", "092851.625000", "092852.630000", "092853.632500", "092854.637500", "092855.642500", "092856.645000", "092857.650000", "092858.652500", "092859.657500", "092900.662500", "092901.665000", "092902.670000", "092903.672500", "092904.677500", "092905.682500", "092906.685000", "092907.690000", "092908.692500", "092909.697500", "092910.702500", "092911.705000", "092912.710000", "092913.712500", "092914.717500", "092915.722500", "092916.725000", "092917.730000", "092918.732500", "092919.737500", "092920.742500", "092921.745000", "092922.750000", "092923.755000", "092924.757500", "092925.762500", "092926.765000", "092927.770000", "092928.775000", "092929.777500", "092930.782500", "092931.785000", "092932.790000", "092933.795000", "092934.797500", "092935.802500", "092936.805000", "092937.810000", "092938.815000", "092939.817500", "092940.822500", "092941.825000", "092942.830000", "092943.835000", "092944.837500", "092945.842500", "092946.845000", "092947.850000", "092948.855000", "092949.857500", "092950.862500", "092951.867500", "092952.870000", "092953.875000", "092954.877500", "092955.882500", "092956.887500", "092957.890000", "092958.895000", "092959.897500", "093000.902500", "093001.907500", "093002.910000", "093003.915000", "093004.917500", "093005.922500", "093006.927500", "093007.930000", "093008.935000", "093009.937500", "093010.942500", "093011.947500", "093012.950000", "093013.955000", "093014.957500", "093015.962500", "093016.967500", "093017.970000", "093018.975000", "093019.977500", "093020.982500", "093021.987500", "093022.990000", "093023.995000", "093025.000000", "093026.002500", "093027.007500", "093028.010000", "093029.015000", "093030.020000", "093031.022500", "093032.027500", "093033.030000", "093034.035000", "093035.040000", "093036.042500", "093037.047500", "093038.050000", "093039.055000", "093040.060000", "093041.062500", "093042.067500", "093043.070000", "093044.075000", "093045.080000", "093046.082500", "093047.087500", "093048.090000", "093049.095000", "093050.100000", "093051.102500", "093052.107500", "093053.110000", "093054.115000", "093055.120000", "093056.122500", "093057.127500", "093058.132500", "093059.135000", "093100.140000", "093101.142500", "093102.147500", "093103.152500", "093104.155000", "093105.160000", "093106.162500", "093107.167500", "093108.172500", "093109.175000", "093110.180000", "093111.182500", "093112.187500", "093113.192500", "093114.195000", "093115.200000", "093116.202500", "093117.207500", "093118.212500", "093119.215000", "093120.220000", "093121.222500", "093122.227500", "093123.232500", "093124.235000", "093125.240000", "093126.245000", "093127.247500", "093128.252500", "093129.255000", "093130.260000", "093131.265000", "093132.267500", "093133.272500", "093134.275000", "093135.280000", "093136.285000", "093137.287500", "093138.292500", "093139.295000", "093140.300000", "093141.305000", "093142.307500", "093143.312500", "093144.315000", "093145.320000", "093146.325000", "093147.327500", "093148.332500", "093149.335000"],
      "ContentTime": ["092655.390000", "092655.390000", "092655.390000", "092655.390000", "092655.390000", "092655.390000", "092655.406000", "092655.406000", "092655.406000", "092655.406000", "092655.406000", "092655.406000", "092655.421000", "092655.421000", "092655.421000", "092655.421000", "092655.421000", "092655.421000", "092655.421000", "092655.437000", "092655.437000", "092655.437000", "092655.437000", "092655.437000", "092655.437000", "092655.453000", "092655.453000", "092655.453000", "092655.453000", "092655.453000", "092655.453000", "092655.468000", "092655.468000", "092655.468000", "092715.343000", "092715.343000", "092715.343000", "092715.343000", "092715.343000", "092715.343000", "092715.359000", "092715.359000", "092715.359000", "092715.359000", "092715.359000", "092715.359000", "092715.359000", "092715.375000", "092715.375000", "092715.375000", "092715.375000", "092715.375000", "092715.375000", "092715.390000", "092735.343000", "092735.343000", "092735.343000", "092735.343000", "092735.343000", "092735.343000", "092735.359000", "092735.359000", "092735.359000", "092735.359000", "092735.359000", "092735.375000", "092735.375000", "092735.375000", "092735.375000", "092735.375000", "092735.375000", "092735.390000", "092735.390000", "092735.390000", "092755.343000", "092755.343000", "092755.343000", "092755.343000", "092755.343000", "092755.343000", "092755.359000", "092755.359000", "092755.359000", "092755.359000", "092755.359000", "092755.359000", "092755.359000", "092755.375000", "092755.375000", "092755.375000", "092755.375000", "092755.390000", "092755.390000", "092755.390000", "092815.343000", "092815.390000", "092815.390000", "092815.390000", "092815.406000", "092815.406000", "092815.406000", "092815.406000", "092815.406000", "092815.406000", "092815.421000", "092815.421000", "092815.421000", "092815.421000", "092815.421000", "092815.421000", "092815.421000", "092815.437000", "092815.437000", "092815.437000", "092835.343000", "092835.343000", "092835.343000", "092835.343000", "092835.343000", "092835.343000", "092835.359000", "092835.359000", "092835.359000", "092835.359000", "092835.359000", "092835.375000", "092835.375000", "092835.375000", "092835.375000", "092835.375000", "092835.390000", "092835.390000", "092835.390000", "092835.390000", "092855.343000", "092855.343000", "092855.343000", "092855.343000", "092855.343000", "092855.343000", "092855.359000", "092855.359000", "092855.359000", "092855.359000", "092855.359000", "092855.359000", "092855.359000", "092855.375000", "092855.375000", "092855.375000", "092855.375000", "092855.375000", "092855.375000", "092855.375000", "092915.343000", "092915.343000", "092915.343000", "092915.343000", "092915.343000", "092915.343000", "092915.359000", "092915.375000", "092915.375000", "092915.375000", "092915.390000", "092915.390000", "092915.390000", "092915.390000", "092915.390000", "092915.406000", "092915.406000", "092915.406000", "092915.406000", "092915.406000", "092935.343000", "092935.390000", "092935.406000", "092935.406000", "092935.406000", "092935.406000", "092935.406000", "092935.421000", "092935.421000", "092935.421000", "092935.421000", "092935.421000", "092935.421000", "092935.421000", "092935.437000", "092935.437000", "092935.437000", "092935.437000", "092935.437000", "092935.437000", "092955.343000", "092955.343000", "092955.343000", "092955.343000", "092955.343000", "092955.359000", "092955.359000", "092955.359000", "092955.359000", "092955.359000", "092955.359000", "092955.359000", "092955.375000", "092955.375000", "092955.375000", "092955.375000", "092955.375000", "092955.375000", "092955.375000", "092955.390000", "093015.343000", "093015.343000", "093015.343000", "093015.343000", "093015.343000", "093015.343000", "093015.359000", "093015.359000", "093015.359000", "093015.359000", "093015.359000", "093015.359000", "093015.359000", "093015.375000", "093015.375000", "093015.375000", "093015.375000", "093015.375000", "093015.375000", "093015.375000", "093035.343000", "093035.343000", "093035.343000", "093035.343000", "093035.343000", "093035.343000", "093035.359000", "093035.359000", "093035.359000", "093035.359000", "093035.359000", "093035.359000", "093035.359000", "093035.375000", "093035.375000", "093035.375000", "093035.375000", "093035.375000", "093035.375000", "093035.375000", "093055.343000", "093055.390000", "093055.390000", "093055.406000", "093055.406000", "093055.406000", "093055.406000", "093055.406000", "093055.421000", "093055.421000", "093055.421000", "093055.421000", "093055.421000", "093055.421000", "093055.421000", "093055.437000", "093055.437000", "093055.437000", "093055.437000", "093055.437000", "093115.343000", "093115.343000", "093115.343000", "093115.343000", "093115.343000", "093115.343000", "093115.359000", "093115.359000", "093115.359000", "093115.359000", "093115.359000", "093115.359000", "093115.375000", "093115.375000", "093115.375000", "093115.375000", "093115.375000", "093115.375000", "093115.375000", "093115.390000", "093135.343000", "093135.343000", "093135.343000", "093135.343000", "093135.359000", "093135.359000", "093135.359000", "093135.359000", "093135.359000", "093135.359000", "093135.359000", "093135.375000", "093135.375000", "093135.375000", "093135.375000", "093135.375000", "093135.375000", "093135.375000", "093135.390000", "093135.390000", "093155.468000", "093155.468000", "093155.468000", "093155.468000", "093155.468000", "093155.484000", "093155.484000", "093155.484000", "093155.500000", "093155.500000", "093155.500000", "093155.500000", "093155.500000", "093155.500000", "093155.500000", "093155.500000"],
      "InstanceCreationTime": ["092655.390000", "092655.390000", "092655.390000", "092655.390000", "092655.390000", "092655.390000", "092655.406000", "092655.406000", "092655.406000", "092655.406000", "092655.406000", "092655.406000", "092655.421000", "092655.421000", "092655.421000", "092655.421000", "092655.421000", "092655.421000", "092655.421000", "092655.437000", "092655.437000", "092655.437000", "092655.437000", "092655.437000", "092655.437000", "092655.453000", "092655.453000", "092655.453000", "092655.453000", "092655.453000", "092655.453000", "092655.468000", "092655.468000", "092655.468000", "092715.343000", "092715.343000", "092715.343000", "092715.343000", "092715.343000", "092715.343000", "092715.359000", "092715.359000", "092715.359000", "092715.359000", "092715.359000", "092715.359000", "092715.359000", "092715.375000", "092715.375000", "092715.375000", "092715.375000", "092715.375000", "092715.375000", "092715.390000", "092735.343000", "092735.343000", "092735.343000", "092735.343000", "092735.343000", "092735.343000", "092735.359000", "092735.359000", "092735.359000", "092735.359000", "092735.359000", "092735.375000", "092735.375000", "092735.375000", "092735.375000", "092735.375000", "092735.375000", "092735.390000", "092735.390000", "092735.390000", "092755.343000", "092755.343000", "092755.343000", "092755.343000", "092755.343000", "092755.343000", "092755.359000", "092755.359000", "092755.359000", "092755.359000", "092755.359000", "092755.359000", "092755.359000", "092755.375000", "092755.375000", "092755.375000", "092755.375000", "092755.390000", "092755.390000", "092755.390000", "092815.343000", "092815.390000", "092815.390000", "092815.390000", "092815.406000", "092815.406000", "092815.406000", "092815.406000", "092815.406000", "092815.406000", "092815.421000", "092815.421000", "092815.421000", "092815.421000", "092815.421000", "092815.421000", "092815.421000", "092815.437000", "092815.437000", "092815.437000", "092835.343000", "092835.343000", "092835.343000", "092835.343000", "092835.343000", "092835.343000", "092835.359000", "092835.359000", "092835.359000", "092835.359000", "092835.359000", "092835.375000", "092835.375000", "092835.375000", "092835.375000", "092835.375000", "092835.390000", "092835.390000", "092835.390000", "092835.390000", "092855.343000", "092855.343000", "092855.343000", "092855.343000", "092855.343000", "092855.343000", "092855.359000", "092855.359000", "092855.359000", "092855.359000", "092855.359000", "092855.359000", "092855.359000", "092855.375000", "092855.375000", "092855.375000", "092855.375000", "092855.375000", "092855.375000", "092855.375000", "092915.343000", "092915.343000", "092915.343000", "092915.343000", "092915.343000", "092915.343000", "092915.359000", "092915.375000", "092915.375000", "092915.375000", "092915.390000", "092915.390000", "092915.390000", "092915.390000", "092915.390000", "092915.406000", "092915.406000", "092915.406000", "092915.406000", "092915.406000", "092935.343000", "092935.390000", "092935.406000", "092935.406000", "092935.406000", "092935.406000", "092935.406000", "092935.421000", "092935.421000", "092935.421000", "092935.421000", "092935.421000", "092935.421000", "092935.421000", "092935.437000", "092935.437000", "092935.437000", "092935.437000", "092935.437000", "092935.437000", "092955.343000", "092955.343000", "092955.343000", "092955.343000", "092955.343000", "092955.359000", "092955.359000", "092955.359000", "092955.359000", "092955.359000", "092955.359000", "092955.359000", "092955.375000", "092955.375000", "092955.375000", "092955.375000", "092955.375000", "092955.375000", "092955.375000", "092955.390000", "093015.343000", "093015.343000", "093015.343000", "093015.343000", "093015.343000", "093015.343000", "093015.359000", "093015.359000", "093015.359000", "093015.359000", "093015.359000", "093015.359000", "093015.359000", "093015.375000", "093015.375000", "093015.375000", "093015.375000", "093015.375000", "093015.375000", "093015.375000", "093035.343000", "093035.343000", "093035.343000", "093035.343000", "093035.343000", "093035.343000", "093035.359000", "093035.359000", "093035.359000", "093035.359000", "093035.359000", "093035.359000", "093035.359000", "093035.375000", "093035.375000", "093035.375000", "093035.375000", "093035.375000", "093035.375000", "093035.375000", "093055.343000", "093055.390000", "093055.390000", "093055.406000", "093055.406000", "093055.406000", "093055.406000", "093055.406000", "093055.421000", "093055.421000", "093055.421000", "093055.421000", "093055.421000", "093055.421000", "093055.421000", "093055.437000", "093055.437000", "093055.437000", "093055.437000", "093055.437000", "093115.343000", "093115.343000", "093115.343000", "093115.343000", "093115.343000", "093115.343000", "093115.359000", "093115.359000", "093115.359000", "093115.359000", "093115.359000", "093115.359000", "093115.375000", "093115.375000", "093115.375000", "093115.375000", "093115.375000", "093115.375000", "093115.375000", "093115.390000", "093135.343000", "093135.343000", "093135.343000", "093135.343000", "093135.359000", "093135.359000", "093135.359000", "093135.359000", "093135.359000", "093135.359000", "093135.359000", "093135.375000", "093135.375000", "093135.375000", "093135.375000", "093135.375000", "093135.375000", "093135.375000", "093135.390000", "093135.390000", "093155.468000", "093155.468000", "093155.468000", "093155.468000", "093155.468000", "093155.484000", "093155.484000", "093155.484000", "093155.500000", "093155.500000", "093155.500000", "093155.500000", "093155.500000", "093155.500000", "093155.500000", "093155.500000"],
      "InstanceNumber": [1, 2, 3, 4, 5, 6, 7, 8, 9, 10, 11, 12, 13, 14, 15, 16, 17, 18, 19, 20, 21, 22, 23, 24, 25, 26, 27, 28, 29, 30, 31, 32, 33, 34, 35, 36, 37, 38, 39, 40, 41, 42, 43, 44, 45, 46, 47, 48, 49, 50, 51, 52, 53, 54, 55, 56, 57, 58, 59, 60, 61, 62, 63, 64, 65, 66, 67, 68, 69, 70, 71, 72, 73, 74, 75, 76, 77, 78, 79, 80, 81, 82, 83, 84, 85, 86, 87, 88, 89, 90, 91, 92, 93, 94, 95, 96, 97, 98, 99, 100, 101, 102, 103, 104, 105, 106, 107, 108, 109, 110, 111, 112, 113, 114, 115, 116, 117, 118, 119, 120, 121, 122, 123, 124, 125, 126, 127, 128, 129, 130, 131, 132, 133, 134, 135, 136, 137, 138, 139, 140, 141, 142, 143, 144, 145, 146, 147, 148, 149, 150, 151, 152, 153, 154, 155, 156, 157, 158, 159, 160, 161, 162, 163, 164, 165, 166, 167, 168, 169, 170, 171, 172, 173, 174, 175, 176, 177, 178, 179, 180, 181, 182, 183, 184, 185, 186, 187, 188, 189, 190, 191, 192, 193, 194, 195, 196, 197, 198, 199, 200, 201, 202, 203, 204, 205, 206, 207, 208, 209, 210, 211, 212, 213, 214, 215, 216, 217, 218, 219, 220, 221, 222, 223, 224, 225, 226, 227, 228, 229, 230, 231, 232, 233, 234, 235, 236, 237, 238, 239, 240, 241, 242, 243, 244, 245, 246, 247, 248, 249, 250, 251, 252, 253, 254, 255, 256, 257, 258, 259, 260, 261, 262, 263, 264, 265, 266, 267, 268, 269, 270, 271, 272, 273, 274, 275, 276, 277, 278, 279, 280, 281, 282, 283, 284, 285, 286, 287, 288, 289, 290, 291, 292, 293, 294, 295, 296, 297, 298, 299, 300, 301, 302, 303, 304, 305, 306, 307, 308, 309, 310, 311, 312, 313, 314, 315, 316, 317, 318, 319, 320, 321, 322, 323, 324, 325, 326, 327, 328, 329, 330],
      "LargestImagePixelValue": [2050, 2024, 1991, 2021, 2019, 2013, 1973, 2000, 1951, 1964, 1989, 1966, 2013, 1992, 2002, 2024, 2009, 2061, 2036, 2035, 2085, 2070, 2102, 2089, 2065, 2039, 2007, 2033, 2078, 2054, 2096, 2050, 2045, 2072, 2031, 2085, 2048, 2062, 2132, 2097, 2100, 2089, 2131, 2058, 2027, 1994, 2028, 2067, 2129, 2054, 2054, 2030, 2111, 2054, 2067, 2095, 2081, 2082, 2105, 2066, 2095, 2036, 2058, 2044, 2102, 2036, 2086, 2093, 2087, 2114, 2059, 2039, 2041, 2079, 2075, 2022, 2067, 2082, 2094, 2104, 2072, 2086, 2092, 2086, 2120, 2085, 2079, 2109, 2122, 2120, 2131, 2085, 2139, 2112, 2097, 2084, 2073, 2076, 2084, 2079, 2043, 2129, 2095, 2127, 2036, 2058, 2065, 2031, 2057, 2069, 2064, 2103, 2090, 2080, 2005, 2067, 2077, 2088, 2097, 2080, 2092, 2120, 2088, 2098, 2061, 2025, 2051, 2080, 2081, 2080, 2100, 2072, 2070, 2072, 2047, 2038, 2072, 2110, 2088, 2071, 2067, 2051, 2072, 2069, 2022, 2095, 2145, 2100, 2078, 2102, 2075, 2077, 2089, 2044, 2033, 2074, 2074, 2062, 2061, 2082, 2084, 2077, 2083, 2115, 2087, 2038, 2039, 2002, 2022, 2051, 2085, 2100, 2077, 2065, 2102, 2132, 2093, 2117, 2094, 2090, 2068, 2086, 2126, 2098, 2095, 2090, 2149, 2101, 2116, 2062, 2033, 2137, 2076, 2056, 1997, 2124, 2118, 2113, 2059, 2050, 2086, 2098, 2151, 2082, 2058, 2076, 2155, 2064, 2068, 2036, 2021, 2065, 2110, 2056, 2049, 2085, 2158, 2083, 2045, 2041, 2067, 2074, 2068, 2078, 2070, 2027, 2113, 2130, 2057, 2088, 2085, 2114, 2095, 2058, 2052, 2067, 2057, 2061, 2050, 2060, 2030, 2078, 2125, 2033, 2023, 2057, 2193, 2204, 2085, 2040, 2057, 2095, 2031, 2117, 2039, 2114, 2151, 2095, 2069, 2137, 2192, 2148, 2097, 2077, 2060, 2059, 2078, 2143, 2071, 2061, 2086, 2116, 2032, 2084, 2039, 2060, 2049, 2088, 2057, 2026, 2043, 2044, 1991, 2014, 2018, 2029, 2132, 2128, 2064, 2059, 2082, 2073, 2096, 2051, 2000, 2046, 2129, 2048, 2042, 2009, 2057, 2042, 2119, 2094, 2021, 2126, 2166, 2052, 2074, 2072, 2060, 2031, 2160, 2096, 2037, 2087, 2113, 2134, 2111, 2083, 2133, 2152, 2116, 2073, 1994, 2031, 2120, 2125, 2041, 2012],
      "WindowCenter": [417.0, 417.0, 416.0, 417.0, 417.0, 417.0, 417.0, 415.0, 415.0, 415.0, 415.0, 415.0, 416.0, 416.0, 417.0, 417.0, 416.0, 417.0, 417.0, 417.0, 417.0, 418.0, 418.0, 417.0, 417.0, 417.0, 417.0, 417.0, 418.0, 417.0, 417.0, 415.0, 415.0, 416.0, 415.0, 416.0, 417.0, 417.0, 417.0, 417.0, 417.0, 417.0, 416.0, 415.0, 415.0, 416.0, 417.0, 417.0, 418.0, 417.0, 417.0, 417.0, 418.0, 418.0, 419.0, 419.0, 418.0, 417.0, 417.0, 417.0, 418.0, 416.0, 416.0, 415.0, 417.0, 418.0, 419.0, 418.0, 417.0, 416.0, 416.0, 416.0, 416.0, 416.0, 417.0, 417.0, 417.0, 418.0, 417.0, 417.0, 417.0, 417.0, 418.0, 418.0, 417.0, 415.0, 416.0, 417.0, 418.0, 419.0, 419.0, 418.0, 418.0, 418.0, 417.0, 417.0, 417.0, 418.0, 419.0, 419.0, 419.0, 418.0, 417.0, 417.0, 417.0, 416.0, 417.0, 417.0, 417.0, 417.0, 417.0, 417.0, 417.0, 419.0, 419.0, 418.0, 418.0, 418.0, 419.0, 418.0, 417.0, 417.0, 416.0, 416.0, 416.0, 417.0, 417.0, 417.0, 418.0, 419.0, 418.0, 419.0, 419.0, 419.0, 418.0, 417.0, 417.0, 418.0, 417.0, 417.0, 417.0, 417.0, 418.0, 418.0, 418.0, 419.0, 419.0, 419.0, 419.0, 419.0, 417.0, 416.0, 416.0, 416.0, 417.0, 416.0, 416.0, 417.0, 417.0, 417.0, 417.0, 417.0, 417.0, 418.0, 417.0, 417.0, 417.0, 417.0, 417.0, 418.0, 417.0, 418.0, 417.0, 417.0, 418.0, 419.0, 418.0, 418.0, 418.0, 418.0, 417.0, 417.0, 418.0, 417.0, 417.0, 417.0, 417.0, 418.0, 419.0, 418.0, 417.0, 418.0, 417.0, 417.0, 417.0, 418.0, 419.0, 419.0, 418.0, 418.0, 417.0, 417.0, 418.0, 418.0, 417.0, 417.0, 418.0, 417.0, 417.0, 417.0, 417.0, 417.0, 419.0, 418.0, 417.0, 418.0, 418.0, 417.0, 417.0, 418.0, 418.0, 418.0, 417.0, 417.0, 417.0, 416.0, 416.0, 418.0, 417.0, 417.0, 417.0, 417.0, 416.0, 416.0, 417.0, 417.0, 417.0, 418.0, 418.0, 419.0, 418.0, 418.0, 418.0, 419.0, 419.0, 419.0, 419.0, 419.0, 417.0, 416.0, 416.0, 416.0, 417.0, 417.0, 417.0, 418.0, 419.0, 418.0, 418.0, 419.0, 418.0, 417.0, 417.0, 418.0, 418.0, 418.0, 417.0, 417.0, 416.0, 415.0, 416.0, 417.0, 417.0, 417.0, 417.0, 417.0, 417.0, 417.0, 417.0, 417.0, 417.0, 417.0, 417.0, 417.0, 416.0, 415.0, 417.0, 417.0, 418.0, 418.0, 418.0, 417.0, 417.0, 417.0, 417.0, 417.0, 417.0, 416.0, 416.0, 416.0, 417.0, 417.0, 418.0, 418.0, 417.0, 418.0, 418.0, 417.0, 417.0, 417.0, 417.0, 417.0, 419.0, 419.0, 417.0, 417.0, 418.0, 418.0, 419.0, 418.0, 418.0, 417.0, 416.0, 416.0, 415.0, 415.0, 416.0, 417.0, 417.0, 416.0],
