{
  "AcquisitionMatrixPE": 104,
  "AcquisitionNumber": 1,
  "AcquisitionTime": "09:19:44.315000",
  "BandwidthPerPixelPhaseEncode": 43.054,
  "BaseResolution": 104,
  "CoilString": "C:E1_2",
  "ConversionSoftware": "dcm2niix",
  "ConversionSoftwareVersion": "v1.0.20191031",
  "DerivedVendorReportedEchoSpacing": 0.000669999,
  "DeviceSerialNumber": "18932",
  "DwellTime": 2.8e-06,
  "EchoTime": 0.02,
  "EffectiveEchoSpacing": 0.000223333,
  "FlipAngle": 30,
  "ImageComments": "Unaliased_MB2_PE2",
  "ImageOrientationPatientDICOM": [1, 0, 0, 0, 0.992546, -0.121869],
  "ImageType": [
    "ORIGINAL",
    "PRIMARY",
    "M",
    "MB",
    "ND",
    "MOSAIC"
],
  "ImagingFrequency": 297.23,
  "InPlanePhaseEncodingDirectionDICOM": "COL",
  "InstitutionAddress": "Richmond_Street_North_1151_London_409EF2_Ontario_CA_N6A_5B7",
  "InstitutionName": "Robarts_Reserch_Institute",
  "InstitutionalDepartmentName": "Department",
  "MRAcquisitionType": "2D",
  "MagneticFieldStrength": 6.98,
  "Manufacturer": "Siemens",
  "ManufacturersModelName": "Investigational_Device_7T",
  "Modality": "MR",
  "MultibandAccelerationFactor": 2,
  "ParallelReductionFactorInPlane": 3,
  "PartialFourier": 0.875,
  "PatientPosition": "HFS",
  "PercentPhaseFOV": 100,
  "PhaseEncodingDirection": "j-",
  "PhaseEncodingSteps": 91,
  "PhaseResolution": 1,
  "PixelBandwidth": 1717,
  "ProcedureStepDescription": "Diedrichsen_SeqRep4",
  "ProtocolName": "mbep2d_bold_mb2_p3_AP_2iso",
  "PulseSequenceDetails": "%CustomerSeq%_cmrr_mbep2d_bold",
  "ReceiveCoilName": "CFMM_8Tx32Rx",
  "ReconMatrixPE": 104,
  "RefLinesPE": 36,
  "RepetitionTime": 1,
  "ScanOptions": "PFP_FS",
  "ScanningSequence": "EP",
  "SequenceName": "epfid2d1_104",
  "SequenceVariant": "SK_SS",
  "SeriesDescription": "mbep2d_bold_mb2_p3_AP_2iso",
  "SeriesNumber": 14,
  "ShimSetting": [-39, 2025, 376, 241, 228, 77, -97, -67],
  "SliceThickness": 2,
  "SliceTiming": [0, 0.2275, 0.455, 0.6825, 0.9125, 0.135, 0.365, 0.5925, 0.82, 0.045, 0.2725, 0.5, 0.73, 0.9575, 0.1825, 0.41, 0.6375, 0.865, 0.09, 0.3175, 0.5475, 0.775, 0, 0.2275, 0.455, 0.6825, 0.9125, 0.135, 0.365, 0.5925, 0.82, 0.045, 0.2725, 0.5, 0.73, 0.9575, 0.1825, 0.41, 0.6375, 0.865, 0.09, 0.3175, 0.5475, 0.775],
  "SoftwareVersions": "syngo_MR_B17",
  "SpacingBetweenSlices": 2,
  "StationName": "MASTER",
  "TaskName": "dsp",
  "TotalReadoutTime": 0.0230033,
  "TxRefAmp": 120,
  "dcmmeta_affine": [
    [-2.0, 0.0, 0.0, 108.35835266113281],
    [0.0, 1.985092282295227, -0.24373869597911835, -107.62377166748047],
    [0.0, 0.24373868107795715, 1.985092282295227, -34.82061767578125],
    [0.0, 0.0, 0.0, 1.0]
],
  "dcmmeta_reorient_transform": [
    [0.0, -1.0, 0.0, 103.0],
    [1.0, 0.0, 0.0, 0.0],
    [0.0, 0.0, 1.0, 0.0],
    [0.0, 0.0, 0.0, 1.0]
],
  "dcmmeta_shape": [104, 104, 44, 330],
  "dcmmeta_slice_dim": 2,
  "dcmmeta_version": 0.6,
  "global": {
    "const": {
      "AcquisitionMatrix": [104, 0, 0, 104],
      "AngioFlag": "N",
      "BitsAllocated": 16,
      "BitsStored": 12,
      "Columns": 728,
      "EchoNumbers": 1,
      "EchoTime": 20.0,
      "EchoTrainLength": 1,
      "FlipAngle": 30.0,
      "HighBit": 11,
      "ImageOrientationPatient": [1.0, 0.0, 0.0, 0.0, 0.99254615167353, -0.1218693431428],
      "ImagePositionPatient": [-732.35835361481, -716.18953612814, 66.330935824086],
      "ImageType": [
        "ORIGINAL",
        "PRIMARY",
        "M",
        "MB",
        "ND",
        "MOSAIC"
],
      "ImagedNucleus": "1H",
      "ImagingFrequency": 297.230124,
      "InPlanePhaseEncodingDirection": "COL",
      "MRAcquisitionType": "2D",
      "MagneticFieldStrength": 6.98,
      "Manufacturer": "SIEMENS",
      "ManufacturerModelName": "Investigational_Device_7T",
      "Modality": "MR",
      "NumberOfAverages": 1.0,
      "NumberOfPhaseEncodingSteps": 91,
      "PercentPhaseFieldOfView": 100.0,
      "PercentSampling": 100.0,
      "PerformedProcedureStepStartTime": "085638.812000",
      "PhotometricInterpretation": "MONOCHROME2",
      "PixelBandwidth": 1717.0,
      "PixelRepresentation": 0,
      "PixelSpacing": [2.0, 2.0],
      "ProtocolName": "mbep2d_bold_mb2_p3_AP 2iso",
      "RepetitionTime": 1000.0,
      "Rows": 728,
      "SAR": 0.0,
      "SamplesPerPixel": 1,
      "ScanOptions": [
        "PFP",
        "FS"
],
      "ScanningSequence": "EP",
      "SequenceName": "epfid2d1_104",
      "SequenceVariant": [
        "SK",
        "SS"
],
      "SeriesDescription": "mbep2d_bold_mb2_p3_AP 2iso",
      "SeriesNumber": 14,
      "SeriesTime": "092006.281000",
      "SliceLocation": -21.445033244596,
      "SliceThickness": 2.0,
      "SmallestImagePixelValue": 0,
      "SoftwareVersions": "syngo MR B17",
      "SpacingBetweenSlices": 2.0000000380287,
      "SpecificCharacterSet": "ISO_IR 100",
      "StudyID": "1",
      "StudyTime": "085638.765000",
      "TransmitCoilName": "CFMM_8Tx32Rx",
      "VariableFlipAngleFlag": "N",
      "WindowCenterWidthExplanation": "Algo1",
      "dBdt": 0.0},
    "slices": {}
  },
  "time": {
    "samples": {
      "AcquisitionNumber": [1, 2, 3, 4, 5, 6, 7, 8, 9, 10, 11, 12, 13, 14, 15, 16, 17, 18, 19, 20, 21, 22, 23, 24, 25, 26, 27, 28, 29, 30, 31, 32, 33, 34, 35, 36, 37, 38, 39, 40, 41, 42, 43, 44, 45, 46, 47, 48, 49, 50, 51, 52, 53, 54, 55, 56, 57, 58, 59, 60, 61, 62, 63, 64, 65, 66, 67, 68, 69, 70, 71, 72, 73, 74, 75, 76, 77, 78, 79, 80, 81, 82, 83, 84, 85, 86, 87, 88, 89, 90, 91, 92, 93, 94, 95, 96, 97, 98, 99, 100, 101, 102, 103, 104, 105, 106, 107, 108, 109, 110, 111, 112, 113, 114, 115, 116, 117, 118, 119, 120, 121, 122, 123, 124, 125, 126, 127, 128, 129, 130, 131, 132, 133, 134, 135, 136, 137, 138, 139, 140, 141, 142, 143, 144, 145, 146, 147, 148, 149, 150, 151, 152, 153, 154, 155, 156, 157, 158, 159, 160, 161, 162, 163, 164, 165, 166, 167, 168, 169, 170, 171, 172, 173, 174, 175, 176, 177, 178, 179, 180, 181, 182, 183, 184, 185, 186, 187, 188, 189, 190, 191, 192, 193, 194, 195, 196, 197, 198, 199, 200, 201, 202, 203, 204, 205, 206, 207, 208, 209, 210, 211, 212, 213, 214, 215, 216, 217, 218, 219, 220, 221, 222, 223, 224, 225, 226, 227, 228, 229, 230, 231, 232, 233, 234, 235, 236, 237, 238, 239, 240, 241, 242, 243, 244, 245, 246, 247, 248, 249, 250, 251, 252, 253, 254, 255, 256, 257, 258, 259, 260, 261, 262, 263, 264, 265, 266, 267, 268, 269, 270, 271, 272, 273, 274, 275, 276, 277, 278, 279, 280, 281, 282, 283, 284, 285, 286, 287, 288, 289, 290, 291, 292, 293, 294, 295, 296, 297, 298, 299, 300, 301, 302, 303, 304, 305, 306, 307, 308, 309, 310, 311, 312, 313, 314, 315, 316, 317, 318, 319, 320, 321, 322, 323, 324, 325, 326, 327, 328, 329, 330],
      "AcquisitionTime": ["091944.315000", "091945.317500", "091946.322500", "091947.327500", "091948.330000", "091949.335000", "091950.337500", "091951.342500", "091952.347500", "091953.350000", "091954.355000", "091955.357500", "091956.362500", "091957.367500", "091958.370000", "091959.375000", "092000.377500", "092001.382500", "092002.387500", "092003.390000", "092004.395000", "092005.397500", "092006.402500", "092007.407500", "092008.410000", "092009.415000", "092010.417500", "092011.422500", "092012.427500", "092013.430000", "092014.435000", "092015.440000", "092016.442500", "092017.447500", "092018.450000", "092019.455000", "092020.460000", "092021.462500", "092022.467500", "092023.470000", "092024.475000", "092025.480000", "092026.482500", "092027.487500", "092028.490000", "092029.495000", "092030.500000", "092031.502500", "092032.507500", "092033.510000", "092034.515000", "092035.520000", "092036.522500", "092037.527500", "092038.530000", "092039.535000", "092040.540000", "092041.542500", "092042.547500", "092043.550000", "092044.555000", "092045.560000", "092046.562500", "092047.567500", "092048.572500", "092049.575000", "092050.580000", "092051.582500", "092052.587500", "092053.592500", "092054.595000", "092055.600000", "092056.602500", "092057.607500", "092058.612500", "092059.615000", "092100.620000", "092101.622500", "092102.627500", "092103.632500", "092104.635000", "092105.640000", "092106.642500", "092107.647500", "092108.652500", "092109.655000", "092110.660000", "092111.662500", "092112.667500", "092113.672500", "092114.675000", "092115.680000", "092116.682500", "092117.687500", "092118.692500", "092119.695000", "092120.700000", "092121.705000", "092122.707500", "092123.712500", "092124.715000", "092125.720000", "092126.725000", "092127.727500", "092128.732500", "092129.735000", "092130.740000", "092131.745000", "092132.747500", "092133.752500", "092134.755000", "092135.760000", "092136.765000", "092137.767500", "092138.772500", "092139.775000", "092140.780000", "092141.785000", "092142.787500", "092143.792500", "092144.795000", "092145.800000", "092146.805000", "092147.807500", "092148.812500", "092149.817500", "092150.820000", "092151.825000", "092152.827500", "092153.832500", "092154.837500", "092155.840000", "092156.845000", "092157.847500", "092158.852500", "092159.857500", "092200.860000", "092201.865000", "092202.867500", "092203.872500", "092204.877500", "092205.880000", "092206.885000", "092207.887500", "092208.892500", "092209.897500", "092210.900000", "092211.905000", "092212.907500", "092213.912500", "092214.917500", "092215.920000", "092216.925000", "092217.927500", "092218.932500", "092219.937500", "092220.940000", "092221.945000", "092222.950000", "092223.952500", "092224.957500", "092225.960000", "092226.965000", "092227.970000", "092228.972500", "092229.977500", "092230.980000", "092231.985000", "092232.990000", "092233.992500", "092234.997500", "092236.000000", "092237.005000", "092238.010000", "092239.012500", "092240.017500", "092241.020000", "092242.025000", "092243.030000", "092244.032500", "092245.037500", "092246.040000", "092247.045000", "092248.050000", "092249.052500", "092250.057500", "092251.060000", "092252.065000", "092253.070000", "092254.072500", "092255.077500", "092256.082500", "092257.085000", "092258.090000", "092259.092500", "092300.097500", "092301.102500", "092302.105000", "092303.110000", "092304.112500", "092305.117500", "092306.122500", "092307.125000", "092308.130000", "092309.132500", "092310.137500", "092311.142500", "092312.145000", "092313.150000", "092314.152500", "092315.157500", "092316.162500", "092317.165000", "092318.170000", "092319.172500", "092320.177500", "092321.182500", "092322.185000", "092323.190000", "092324.195000", "092325.197500", "092326.202500", "092327.205000", "092328.210000", "092329.215000", "092330.217500", "092331.222500", "092332.225000", "092333.230000", "092334.235000", "092335.237500", "092336.242500", "092337.245000", "092338.250000", "092339.255000", "092340.257500", "092341.262500", "092342.265000", "092343.270000", "092344.275000", "092345.277500", "092346.282500", "092347.285000", "092348.290000", "092349.295000", "092350.297500", "092351.302500", "092352.305000", "092353.310000", "092354.315000", "092355.317500", "092356.322500", "092357.327500", "092358.330000", "092359.335000", "092400.337500", "092401.342500", "092402.347500", "092403.350000", "092404.355000", "092405.357500", "092406.362500", "092407.367500", "092408.370000", "092409.375000", "092410.377500", "092411.382500", "092412.387500", "092413.390000", "092414.395000", "092415.397500", "092416.402500", "092417.407500", "092418.410000", "092419.415000", "092420.417500", "092421.422500", "092422.427500", "092423.430000", "092424.435000", "092425.440000", "092426.442500", "092427.447500", "092428.450000", "092429.455000", "092430.460000", "092431.462500", "092432.467500", "092433.470000", "092434.475000", "092435.480000", "092436.482500", "092437.487500", "092438.490000", "092439.495000", "092440.500000", "092441.502500", "092442.507500", "092443.510000", "092444.515000", "092445.520000", "092446.522500", "092447.527500", "092448.530000", "092449.535000", "092450.540000", "092451.542500", "092452.547500", "092453.550000", "092454.555000", "092455.560000", "092456.562500", "092457.567500", "092458.572500", "092459.575000", "092500.580000", "092501.582500", "092502.587500", "092503.592500", "092504.595000", "092505.600000", "092506.602500", "092507.607500", "092508.612500", "092509.615000", "092510.620000", "092511.622500", "092512.627500", "092513.632500", "092514.635000"],
      "ContentTime": ["092006.296000", "092006.296000", "092006.296000", "092006.296000", "092006.296000", "092006.296000", "092006.296000", "092006.312000", "092006.312000", "092006.312000", "092006.312000", "092006.312000", "092006.312000", "092006.312000", "092006.312000", "092006.328000", "092006.328000", "092006.328000", "092006.328000", "092006.328000", "092026.250000", "092026.250000", "092026.250000", "092026.250000", "092026.265000", "092026.265000", "092026.265000", "092026.265000", "092026.265000", "092026.265000", "092026.265000", "092026.281000", "092026.281000", "092026.281000", "092026.281000", "092026.281000", "092026.281000", "092026.281000", "092026.296000", "092026.296000", "092046.250000", "092046.250000", "092046.250000", "092046.250000", "092046.250000", "092046.250000", "092046.265000", "092046.265000", "092046.265000", "092046.265000", "092046.281000", "092046.281000", "092046.281000", "092046.281000", "092046.281000", "092046.281000", "092046.281000", "092046.296000", "092046.296000", "092046.296000", "092106.250000", "092106.250000", "092106.250000", "092106.250000", "092106.250000", "092106.250000", "092106.265000", "092106.265000", "092106.265000", "092106.265000", "092106.265000", "092106.265000", "092106.265000", "092106.265000", "092106.281000", "092106.281000", "092106.281000", "092106.281000", "092106.281000", "092106.296000", "092126.250000", "092126.250000", "092126.250000", "092126.265000", "092126.265000", "092126.265000", "092126.281000", "092126.281000", "092126.281000", "092126.281000", "092126.296000", "092126.296000", "092126.296000", "092126.296000", "092126.296000", "092126.296000", "092126.296000", "092126.312000", "092126.312000", "092126.312000", "092146.250000", "092146.250000", "092146.250000", "092146.250000", "092146.250000", "092146.250000", "092146.265000", "092146.265000", "092146.265000", "092146.265000", "092146.265000", "092146.265000", "092146.265000", "092146.281000", "092146.281000", "092146.281000", "092146.281000", "092146.281000", "092146.281000", "092146.281000", "092206.250000", "092206.250000", "092206.250000", "092206.250000", "092206.250000", "092206.250000", "092206.265000", "092206.265000", "092206.265000", "092206.265000", "092206.265000", "092206.265000", "092206.265000", "092206.265000", "092206.281000", "092206.281000", "092206.281000", "092206.281000", "092206.281000", "092206.281000", "092226.250000", "092226.250000", "092226.250000", "092226.250000", "092226.250000", "092226.250000", "092226.265000", "092226.265000", "092226.265000", "092226.265000", "092226.265000", "092226.265000", "092226.265000", "092226.265000", "092226.281000", "092226.281000", "092226.281000", "092226.281000", "092226.281000", "092226.281000", "092246.250000", "092246.250000", "092246.250000", "092246.250000", "092246.265000", "092246.265000", "092246.265000", "092246.265000", "092246.265000", "092246.265000", "092246.265000", "092246.265000", "092246.281000", "092246.281000", "092246.281000", "092246.281000", "092246.281000", "092246.281000", "092246.281000", "092246.296000", "092306.250000", "092306.250000", "092306.250000", "092306.250000", "092306.250000", "092306.250000", "092306.265000", "092306.265000", "092306.265000", "092306.265000", "092306.265000", "092306.265000", "092306.265000", "092306.265000", "092306.281000", "092306.281000", "092306.281000", "092306.281000", "092306.281000", "092306.281000", "092326.250000", "092326.250000", "092326.250000", "092326.250000", "092326.265000", "092326.265000", "092326.265000", "092326.265000", "092326.265000", "092326.265000", "092326.265000", "092326.281000", "092326.281000", "092326.281000", "092326.281000", "092326.281000", "092326.281000", "092326.281000", "092326.281000", "092326.296000", "092346.250000", "092346.250000", "092346.250000", "092346.250000", "092346.250000", "092346.250000", "092346.265000", "092346.265000", "092346.265000", "092346.265000", "092346.265000", "092346.265000", "092346.265000", "092346.265000", "092346.281000", "092346.281000", "092346.281000", "092346.281000", "092346.281000", "092346.281000", "092406.250000", "092406.250000", "092406.250000", "092406.250000", "092406.250000", "092406.265000", "092406.265000", "092406.265000", "092406.265000", "092406.265000", "092406.265000", "092406.265000", "092406.265000", "092406.281000", "092406.281000", "092406.281000", "092406.281000", "092406.281000", "092406.281000", "092406.281000", "092426.250000", "092426.250000", "092426.250000", "092426.250000", "092426.250000", "092426.265000", "092426.265000", "092426.265000", "092426.265000", "092426.265000", "092426.265000", "092426.265000", "092426.281000", "092426.281000", "092426.281000", "092426.281000", "092426.281000", "092426.281000", "092426.281000", "092426.296000", "092446.250000", "092446.250000", "092446.250000", "092446.250000", "092446.250000", "092446.250000", "092446.265000", "092446.265000", "092446.265000", "092446.265000", "092446.265000", "092446.265000", "092446.265000", "092446.281000", "092446.281000", "092446.281000", "092446.281000", "092446.281000", "092446.281000", "092446.281000", "092506.250000", "092506.250000", "092506.250000", "092506.250000", "092506.250000", "092506.250000", "092506.265000", "092506.265000", "092506.265000", "092506.265000", "092506.265000", "092506.265000", "092506.265000", "092506.281000", "092506.281000", "092506.281000", "092506.281000", "092506.281000", "092506.281000", "092506.281000", "092520.640000", "092520.640000", "092520.640000", "092520.640000", "092520.656000", "092520.656000", "092520.656000", "092520.656000", "092520.656000", "092520.656000"],
      "InstanceCreationTime": ["092006.296000", "092006.296000", "092006.296000", "092006.296000", "092006.296000", "092006.296000", "092006.296000", "092006.312000", "092006.312000", "092006.312000", "092006.312000", "092006.312000", "092006.312000", "092006.312000", "092006.312000", "092006.328000", "092006.328000", "092006.328000", "092006.328000", "092006.328000", "092026.250000", "092026.250000", "092026.250000", "092026.250000", "092026.265000", "092026.265000", "092026.265000", "092026.265000", "092026.265000", "092026.265000", "092026.265000", "092026.281000", "092026.281000", "092026.281000", "092026.281000", "092026.281000", "092026.281000", "092026.281000", "092026.296000", "092026.296000", "092046.250000", "092046.250000", "092046.250000", "092046.250000", "092046.250000", "092046.250000", "092046.265000", "092046.265000", "092046.265000", "092046.265000", "092046.281000", "092046.281000", "092046.281000", "092046.281000", "092046.281000", "092046.281000", "092046.281000", "092046.296000", "092046.296000", "092046.296000", "092106.250000", "092106.250000", "092106.250000", "092106.250000", "092106.250000", "092106.250000", "092106.265000", "092106.265000", "092106.265000", "092106.265000", "092106.265000", "092106.265000", "092106.265000", "092106.265000", "092106.281000", "092106.281000", "092106.281000", "092106.281000", "092106.281000", "092106.296000", "092126.250000", "092126.250000", "092126.250000", "092126.265000", "092126.265000", "092126.265000", "092126.281000", "092126.281000", "092126.281000", "092126.281000", "092126.296000", "092126.296000", "092126.296000", "092126.296000", "092126.296000", "092126.296000", "092126.296000", "092126.312000", "092126.312000", "092126.312000", "092146.250000", "092146.250000", "092146.250000", "092146.250000", "092146.250000", "092146.250000", "092146.265000", "092146.265000", "092146.265000", "092146.265000", "092146.265000", "092146.265000", "092146.265000", "092146.281000", "092146.281000", "092146.281000", "092146.281000", "092146.281000", "092146.281000", "092146.281000", "092206.250000", "092206.250000", "092206.250000", "092206.250000", "092206.250000", "092206.250000", "092206.265000", "092206.265000", "092206.265000", "092206.265000", "092206.265000", "092206.265000", "092206.265000", "092206.265000", "092206.281000", "092206.281000", "092206.281000", "092206.281000", "092206.281000", "092206.281000", "092226.250000", "092226.250000", "092226.250000", "092226.250000", "092226.250000", "092226.250000", "092226.265000", "092226.265000", "092226.265000", "092226.265000", "092226.265000", "092226.265000", "092226.265000", "092226.265000", "092226.281000", "092226.281000", "092226.281000", "092226.281000", "092226.281000", "092226.281000", "092246.250000", "092246.250000", "092246.250000", "092246.250000", "092246.265000", "092246.265000", "092246.265000", "092246.265000", "092246.265000", "092246.265000", "092246.265000", "092246.265000", "092246.281000", "092246.281000", "092246.281000", "092246.281000", "092246.281000", "092246.281000", "092246.281000", "092246.296000", "092306.250000", "092306.250000", "092306.250000", "092306.250000", "092306.250000", "092306.250000", "092306.265000", "092306.265000", "092306.265000", "092306.265000", "092306.265000", "092306.265000", "092306.265000", "092306.265000", "092306.281000", "092306.281000", "092306.281000", "092306.281000", "092306.281000", "092306.281000", "092326.250000", "092326.250000", "092326.250000", "092326.250000", "092326.265000", "092326.265000", "092326.265000", "092326.265000", "092326.265000", "092326.265000", "092326.265000", "092326.281000", "092326.281000", "092326.281000", "092326.281000", "092326.281000", "092326.281000", "092326.281000", "092326.281000", "092326.296000", "092346.250000", "092346.250000", "092346.250000", "092346.250000", "092346.250000", "092346.250000", "092346.265000", "092346.265000", "092346.265000", "092346.265000", "092346.265000", "092346.265000", "092346.265000", "092346.265000", "092346.281000", "092346.281000", "092346.281000", "092346.281000", "092346.281000", "092346.281000", "092406.250000", "092406.250000", "092406.250000", "092406.250000", "092406.250000", "092406.265000", "092406.265000", "092406.265000", "092406.265000", "092406.265000", "092406.265000", "092406.265000", "092406.265000", "092406.281000", "092406.281000", "092406.281000", "092406.281000", "092406.281000", "092406.281000", "092406.281000", "092426.250000", "092426.250000", "092426.250000", "092426.250000", "092426.250000", "092426.265000", "092426.265000", "092426.265000", "092426.265000", "092426.265000", "092426.265000", "092426.265000", "092426.281000", "092426.281000", "092426.281000", "092426.281000", "092426.281000", "092426.281000", "092426.281000", "092426.296000", "092446.250000", "092446.250000", "092446.250000", "092446.250000", "092446.250000", "092446.250000", "092446.265000", "092446.265000", "092446.265000", "092446.265000", "092446.265000", "092446.265000", "092446.265000", "092446.281000", "092446.281000", "092446.281000", "092446.281000", "092446.281000", "092446.281000", "092446.281000", "092506.250000", "092506.250000", "092506.250000", "092506.250000", "092506.250000", "092506.250000", "092506.265000", "092506.265000", "092506.265000", "092506.265000", "092506.265000", "092506.265000", "092506.265000", "092506.281000", "092506.281000", "092506.281000", "092506.281000", "092506.281000", "092506.281000", "092506.281000", "092520.640000", "092520.640000", "092520.640000", "092520.640000", "092520.656000", "092520.656000", "092520.656000", "092520.656000", "092520.656000", "092520.656000"],
      "InstanceNumber": [1, 2, 3, 4, 5, 6, 7, 8, 9, 10, 11, 12, 13, 14, 15, 16, 17, 18, 19, 20, 21, 22, 23, 24, 25, 26, 27, 28, 29, 30, 31, 32, 33, 34, 35, 36, 37, 38, 39, 40, 41, 42, 43, 44, 45, 46, 47, 48, 49, 50, 51, 52, 53, 54, 55, 56, 57, 58, 59, 60, 61, 62, 63, 64, 65, 66, 67, 68, 69, 70, 71, 72, 73, 74, 75, 76, 77, 78, 79, 80, 81, 82, 83, 84, 85, 86, 87, 88, 89, 90, 91, 92, 93, 94, 95, 96, 97, 98, 99, 100, 101, 102, 103, 104, 105, 106, 107, 108, 109, 110, 111, 112, 113, 114, 115, 116, 117, 118, 119, 120, 121, 122, 123, 124, 125, 126, 127, 128, 129, 130, 131, 132, 133, 134, 135, 136, 137, 138, 139, 140, 141, 142, 143, 144, 145, 146, 147, 148, 149, 150, 151, 152, 153, 154, 155, 156, 157, 158, 159, 160, 161, 162, 163, 164, 165, 166, 167, 168, 169, 170, 171, 172, 173, 174, 175, 176, 177, 178, 179, 180, 181, 182, 183, 184, 185, 186, 187, 188, 189, 190, 191, 192, 193, 194, 195, 196, 197, 198, 199, 200, 201, 202, 203, 204, 205, 206, 207, 208, 209, 210, 211, 212, 213, 214, 215, 216, 217, 218, 219, 220, 221, 222, 223, 224, 225, 226, 227, 228, 229, 230, 231, 232, 233, 234, 235, 236, 237, 238, 239, 240, 241, 242, 243, 244, 245, 246, 247, 248, 249, 250, 251, 252, 253, 254, 255, 256, 257, 258, 259, 260, 261, 262, 263, 264, 265, 266, 267, 268, 269, 270, 271, 272, 273, 274, 275, 276, 277, 278, 279, 280, 281, 282, 283, 284, 285, 286, 287, 288, 289, 290, 291, 292, 293, 294, 295, 296, 297, 298, 299, 300, 301, 302, 303, 304, 305, 306, 307, 308, 309, 310, 311, 312, 313, 314, 315, 316, 317, 318, 319, 320, 321, 322, 323, 324, 325, 326, 327, 328, 329, 330],
      "LargestImagePixelValue": [2043, 2030, 2041, 2026, 1983, 1962, 1992, 1999, 1989, 2009, 1975, 1962, 1994, 1978, 2015, 1980, 2036, 2041, 2074, 2046, 2052, 2032, 2005, 2040, 2062, 2043, 2024, 2029, 2070, 2081, 2060, 2057, 2019, 2054, 2027, 2022, 2013, 2035, 2101, 2059, 2029, 2040, 2058, 2099, 2089, 2027, 2069, 2119, 2093, 2075, 2082, 2043, 2046, 2045, 2062, 1986, 2066, 1979, 2106, 2052, 2052, 2084, 2016, 2022, 2033, 1995, 2050, 2081, 2111, 2102, 2128, 2096, 2078, 2127, 2140, 2067, 2038, 2007, 2024, 2047, 2023, 2069, 2074, 2135, 2100, 1983, 1984, 2036, 2023, 2080, 2047, 2041, 2017, 2041, 2036, 2107, 2066, 2041, 2068, 2114, 2084, 2028, 2003, 2068, 2031, 2020, 2057, 2066, 2092, 2097, 2050, 2054, 2108, 2148, 2068, 2003, 2045, 2116, 2079, 2065, 2090, 2067, 2091, 2123, 2139, 2146, 2172, 2103, 2136, 2117, 2103, 2056, 2043, 2145, 2132, 2093, 2065, 2059, 2097, 2061, 2047, 2018, 1981, 2040, 2091, 2032, 2119, 2122, 2118, 2123, 2101, 2058, 2090, 2028, 2046, 2041, 2138, 2096, 2153, 2181, 2124, 2069, 2095, 2158, 2114, 2031, 2064, 2116, 2189, 2143, 2113, 2124, 2060, 2103, 2068, 2055, 2031, 2113, 2168, 2195, 2192, 2081, 2139, 2212, 2126, 2103, 2119, 2061, 2161, 2147, 2167, 2136, 2114, 2196, 2143, 2062, 2100, 2127, 2111, 2200, 2143, 2090, 2165, 2170, 2153, 2072, 2060, 2052, 2084, 2141, 2085, 2053, 2091, 2167, 2158, 2133, 2066, 2044, 2130, 2089, 2049, 2146, 2134, 2143, 2204, 2188, 2101, 2123, 2185, 2135, 2112, 2129, 2149, 2161, 2131, 2131, 2081, 2151, 2167, 2125, 2147, 2170, 2139, 2102, 2131, 2160, 2120, 2126, 2212, 2184, 2100, 2161, 2150, 2128, 2138, 2143, 2101, 2158, 2142, 2137, 2117, 2086, 2121, 2173, 2129, 2108, 2162, 2106, 2142, 2177, 2133, 2113, 2124, 2191, 2161, 2131, 2146, 2133, 2156, 2164, 2071, 2068, 2112, 2134, 2131, 2148, 2116, 2101, 2181, 2149, 2090, 2141, 2150, 2121, 2111, 2126, 2099, 2091, 2139, 2179, 2099, 2105, 2091, 2215, 2182, 2103, 2113, 2155, 2168, 2159, 2095, 2094, 2136, 2147, 2103, 2093, 2107, 2094, 2204, 2224, 2161, 2107, 2139, 2207, 2170, 2112, 2084, 2147, 2174, 2175],
      "WindowCenter": [421.0, 421.0, 420.0, 420.0, 421.0, 420.0, 420.0, 420.0, 420.0, 420.0, 419.0, 420.0, 420.0, 421.0, 422.0, 421.0, 421.0, 421.0, 422.0, 422.0, 422.0, 421.0, 420.0, 420.0, 420.0, 421.0, 421.0, 420.0, 422.0, 421.0, 420.0, 420.0, 419.0, 419.0, 420.0, 420.0, 420.0, 420.0, 419.0, 419.0, 420.0, 420.0, 421.0, 421.0, 421.0, 421.0, 420.0, 420.0, 421.0, 421.0, 420.0, 420.0, 420.0, 420.0, 419.0, 420.0, 421.0, 422.0, 423.0, 422.0, 422.0, 421.0, 420.0, 419.0, 419.0, 419.0, 421.0, 422.0, 422.0, 422.0, 422.0, 421.0, 420.0, 420.0, 420.0, 419.0, 419.0, 419.0, 420.0, 421.0, 421.0, 422.0, 422.0, 422.0, 420.0, 420.0, 420.0, 421.0, 421.0, 421.0, 421.0, 422.0, 422.0, 421.0, 421.0, 421.0, 421.0, 421.0, 421.0, 420.0, 420.0, 419.0, 420.0, 420.0, 420.0, 420.0, 421.0, 421.0, 421.0, 421.0, 420.0, 420.0, 420.0, 420.0, 420.0, 420.0, 420.0, 420.0, 420.0, 420.0, 420.0, 419.0, 420.0, 420.0, 421.0, 422.0, 422.0, 422.0, 422.0, 421.0, 419.0, 419.0, 420.0, 421.0, 421.0, 421.0, 422.0, 422.0, 421.0, 421.0, 421.0, 422.0, 421.0, 422.0, 422.0, 423.0, 423.0, 424.0, 422.0, 421.0, 421.0, 421.0, 420.0, 419.0, 419.0, 421.0, 423.0, 422.0, 422.0, 422.0, 420.0, 420.0, 420.0, 420.0, 420.0, 419.0, 420.0, 421.0, 422.0, 421.0, 420.0, 419.0, 418.0, 419.0, 421.0, 421.0, 422.0, 423.0, 424.0, 424.0, 424.0, 422.0, 422.0, 422.0, 421.0, 421.0, 422.0, 423.0, 423.0, 423.0, 424.0, 424.0, 423.0, 423.0, 422.0, 422.0, 422.0, 424.0, 424.0, 425.0, 424.0, 422.0, 422.0, 421.0, 421.0, 421.0, 420.0, 419.0, 419.0, 419.0, 420.0, 421.0, 422.0, 422.0, 422.0, 421.0, 420.0, 421.0, 421.0, 420.0, 421.0, 423.0, 423.0, 424.0, 423.0, 422.0, 422.0, 422.0, 422.0, 421.0, 421.0, 421.0, 421.0, 421.0, 421.0, 421.0, 420.0, 421.0, 421.0, 421.0, 421.0, 421.0, 420.0, 421.0, 422.0, 423.0, 423.0, 423.0, 424.0, 423.0, 422.0, 422.0, 421.0, 421.0, 422.0, 422.0, 422.0, 422.0, 421.0, 420.0, 420.0, 421.0, 422.0, 423.0, 423.0, 423.0, 422.0, 422.0, 422.0, 422.0, 422.0, 422.0, 422.0, 422.0, 422.0, 422.0, 422.0, 422.0, 421.0, 421.0, 421.0, 421.0, 421.0, 421.0, 421.0, 421.0, 421.0, 421.0, 421.0, 421.0, 421.0, 421.0, 421.0, 421.0, 421.0, 421.0, 420.0, 420.0, 420.0, 420.0, 419.0, 420.0, 421.0, 422.0, 423.0, 422.0, 421.0, 421.0, 421.0, 421.0, 422.0, 422.0, 421.0, 421.0, 421.0, 421.0, 422.0, 422.0, 423.0, 423.0, 422.0, 422.0, 421.0, 421.0, 421.0, 422.0, 422.0, 421.0, 420.0, 420.0],
