{
    "AcquisitionMatrixPE": 84,
    "AcquisitionNumber": 1,
    "AcquisitionTime": "11:10:18.545000",
    "BaseResolution": 168,
    "CoilString": "C:E1_2",
    "ConversionSoftware": "dcm2niix",
    "ConversionSoftwareVersion": "v1.0.20191031",
    "DeviceSerialNumber": "18932",
    "DwellTime": 4.9e-06,
    "EchoNumber": 2,
    "EchoTime": 0.0051,
    "EchoTime1": 0.00408,
    "EchoTime2": 0.0051,
    "FlipAngle": 35,
    "ImageOrientationPatientDICOM": [
        1,
        -2.05103e-10,
        0,
        2.05103e-10,
        1,
        0
    ],
    "ImageType": [
        "ORIGINAL",
        "PRIMARY",
        "P",
        "ND",
        "PHASE"
    ],
    "ImagingFrequency": 297.229,
    "InPlanePhaseEncodingDirectionDICOM": "ROW",
    "InstitutionAddress": "Richmond_Street_North_1151_London_409EF2_Ontario_CA_N6A_5B7",
    "InstitutionName": "Robarts_Reserch_Institute",
    "InstitutionalDepartmentName": "Department",
    "MRAcquisitionType": "2D",
    "MagneticFieldStrength": 6.98,
    "Manufacturer": "Siemens",
    "ManufacturersModelName": "Investigational_Device_7T",
    "Modality": "MR",
    "PartialFourier": 0.75,
    "PatientPosition": "HFS",
    "PercentPhaseFOV": 100,
    "PhaseEncodingDirection": "i",
    "PhaseEncodingSteps": 63,
    "PhaseResolution": 0.5,
    "PixelBandwidth": 607,
    "ProcedureStepDescription": "Diedrichsen_SeqRep4",
    "ProtocolName": "gre_field_mapping",
    "PulseSequenceDetails": "%SiemensSeq%_gre_field_mapping",
    "ReceiveCoilName": "CFMM_8Tx32Rx",
    "ReconMatrixPE": 168,
    "RepetitionTime": 0.475,
    "ScanOptions": "PFP",
    "ScanningSequence": "GR",
    "SequenceName": "fm2d2r",
    "SequenceVariant": "SP",
    "SeriesDescription": "gre_field_mapping",
    "SeriesNumber": 36,
    "ShimSetting": [
        18,
        2052,
        32,
        1280,
        -95,
        -108,
        282,
        -116
    ],
    "SliceThickness": 2.5,
    "SliceTiming": [
        0.24219,
        0,
        0.25,
        0.00781,
        0.25781,
        0.01562,
        0.26562,
        0.02344,
        0.27344,
        0.03125,
        0.28125,
        0.03906,
        0.28906,
        0.04688,
        0.28906,
        0.05469,
        0.29688,
        0.0625,
        0.30469,
        0.07031,
        0.3125,
        0.07812,
        0.32031,
        0.08594,
        0.32812,
        0.09375,
        0.33594,
        0.10156,
        0.34375,
        0.10938,
        0.35156,
        0.11719,
        0.35938,
        0.125,
        0.36719,
        0.13281,
        0.375,
        0.14062,
        0.38281,
        0.14844,
        0.39062,
        0.15625,
        0.39844,
        0.16406,
        0.40625,
        0.16406,
        0.41406,
        0.17188,
        0.42188,
        0.17969,
        0.42969,
        0.1875,
        0.4375,
        0.19531,
        0.44531,
        0.20312,
        0.45312,
        0.21094,
        0.46094,
        0.21875,
        0.46875,
        0.22656,
        0.47656,
        0.23438
    ],
    "SoftwareVersions": "syngo_MR_B17",
    "SpacingBetweenSlices": 2.5,
    "StationName": "MASTER",
    "TxRefAmp": 121.132,
    "dcmmeta_affine": [
        [
            -1.25,
            2.5637925116228644e-10,
            0.0,
            105.54801177978516
        ],
        [
            2.5637925116228644e-10,
            1.25,
            0.0,
            -108.95662689208984
        ],
        [
            0.0,
            0.0,
            2.5,
            -90.367919921875
        ],
        [
            0.0,
            0.0,
            0.0,
            1.0
        ]
    ],
    "dcmmeta_reorient_transform": [
        [
            0.0,
            -1.0,
            0.0,
            167.0
        ],
        [
            1.0,
            0.0,
            0.0,
            0.0
        ],
        [
            0.0,
            0.0,
            -1.0,
            63.0
        ],
        [
            0.0,
            0.0,
            0.0,
            1.0
        ]
    ],
    "dcmmeta_shape": [
        168,
        168,
        64
    ],
    "dcmmeta_slice_dim": 2,
    "dcmmeta_version": 0.6,
    "global": {
        "const": {
            "AcquisitionMatrix": [
                0,
                168,
                84,
                0
            ],
            "AcquisitionNumber": 1,
            "AngioFlag": "N",
            "BitsAllocated": 16,
            "BitsStored": 12,
            "Columns": 168,
            "EchoNumbers": 2,
            "EchoTime": 5.1,
            "EchoTrainLength": 1,
            "FlipAngle": 35.0,
            "HighBit": 11,
            "ImageOrientationPatient": [
                1.0,
                -2.051034e-10,
                0.0,
                2.051034e-10,
                1.0,
                0.0
            ],
            "ImageType": [
                "ORIGINAL",
                "PRIMARY",
                "P",
                "ND"
            ],
            "ImagedNucleus": "1H",
            "ImagingFrequency": 297.228861,
            "InPlanePhaseEncodingDirection": "ROW",
            "MRAcquisitionType": "2D",
            "MagneticFieldStrength": 6.98,
            "Manufacturer": "SIEMENS",
            "ManufacturerModelName": "Investigational_Device_7T",
            "Modality": "MR",
            "NumberOfAverages": 1.0,
            "NumberOfPhaseEncodingSteps": 63,
            "PercentPhaseFieldOfView": 100.0,
            "PercentSampling": 50.0,
            "PerformedProcedureStepStartTime": "094408.468000",
            "PhotometricInterpretation": "MONOCHROME2",
            "PixelBandwidth": 607.0,
            "PixelRepresentation": 0,
            "PixelSpacing": [
                1.25,
                1.25
            ],
            "ProtocolName": "gre_field_mapping",
            "RepetitionTime": 475.0,
            "RescaleIntercept": -4096.0,
            "RescaleSlope": 2.0,
            "RescaleType": "US",
            "Rows": 168,
            "SAR": 0.0,
            "SamplesPerPixel": 1,
            "ScanOptions": "PFP",
            "ScanningSequence": "GR",
            "SequenceName": "fm2d2r",
            "SequenceVariant": "SP",
            "SeriesDescription": "gre_field_mapping",
            "SeriesNumber": 36,
            "SeriesTime": "111125.156000",
            "SliceThickness": 2.5,
            "SoftwareVersions": "syngo MR B17",
            "SpacingBetweenSlices": 2.5,
            "SpecificCharacterSet": "ISO_IR 100",
            "StudyID": "1",
            "StudyTime": "094408.390000",
            "TransmitCoilName": "CFMM_8Tx32Rx",
            "VariableFlipAngleFlag": "N",
            "WindowCenterWidthExplanation": "Algo1",
            "dBdt": 0.0
        },
        "slices": {
            "AcquisitionTime": [
                "111018.545000",
                "111018.307500",
                "111018.552500",
                "111018.315000",
                "111018.560000",
                "111018.322500",
                "111018.567500",
                "111018.330000",
                "111018.575000",
                "111018.337500",
                "111018.582500",
                "111018.345000",
                "111018.590000",
                "111018.352500",
                "111018.597500",
                "111018.360000",
                "111018.605000",
                "111018.367500",
                "111018.612500",
                "111018.375000",
                "111018.620000",
                "111018.382500",
                "111018.627500",
                "111018.390000",
                "111018.635000",
                "111018.397500",
                "111018.642500",
                "111018.405000",
                "111018.650000",
                "111018.412500",
                "111018.657500",
                "111018.420000",
                "111018.665000",
                "111018.427500",
                "111018.672500",
                "111018.435000",
                "111018.680000",
                "111018.442500",
                "111018.687500",
                "111018.450000",
                "111018.695000",
                "111018.457500",
                "111018.702500",
                "111018.465000",
                "111018.710000",
                "111018.472500",
                "111018.717500",
                "111018.480000",
                "111018.725000",
                "111018.487500",
                "111018.732500",
                "111018.495000",
                "111018.740000",
                "111018.500000",
                "111018.747500",
                "111018.507500",
                "111018.755000",
                "111018.515000",
                "111018.762500",
                "111018.522500",
                "111018.770000",
                "111018.530000",
                "111018.777500",
                "111018.537500"
            ],
            "ContentTime": [
                "111125.218000",
                "111125.156000",
                "111125.218000",
                "111125.156000",
                "111125.218000",
                "111125.171000",
                "111125.234000",
                "111125.171000",
                "111125.234000",
                "111125.171000",
                "111125.234000",
                "111125.171000",
                "111125.250000",
                "111125.171000",
                "111125.250000",
                "111125.171000",
                "111125.250000",
                "111125.171000",
                "111125.265000",
                "111125.171000",
                "111125.265000",
                "111125.171000",
                "111125.265000",
                "111125.187000",
                "111125.265000",
                "111125.187000",
                "111125.265000",
                "111125.187000",
                "111125.265000",
                "111125.187000",
                "111125.265000",
                "111125.187000",
                "111125.281000",
                "111125.187000",
                "111125.281000",
                "111125.187000",
                "111125.281000",
                "111125.187000",
                "111125.296000",
                "111125.187000",
                "111125.296000",
                "111125.187000",
                "111125.312000",
                "111125.203000",
                "111125.312000",
                "111125.203000",
                "111125.312000",
                "111125.203000",
                "111125.312000",
                "111125.203000",
                "111125.312000",
                "111125.218000",
                "111125.312000",
                "111125.218000",
                "111125.312000",
                "111125.218000",
                "111125.312000",
                "111125.218000",
                "111125.312000",
                "111125.218000",
                "111125.312000",
                "111125.218000",
                "111125.328000",
                "111125.218000"
            ],
            "CsaImage.ICE_Dims": [
                "X_2_1_1_1_1_1_33_1_1_1_1_50",
                "X_2_1_1_1_1_1_1_1_1_2_1_50",
                "X_2_1_1_1_1_1_34_1_1_3_1_50",
                "X_2_1_1_1_1_1_2_1_1_4_1_50",
                "X_2_1_1_1_1_1_35_1_1_5_1_50",
                "X_2_1_1_1_1_1_3_1_1_6_1_50",
                "X_2_1_1_1_1_1_36_1_1_7_1_50",
                "X_2_1_1_1_1_1_4_1_1_8_1_50",
                "X_2_1_1_1_1_1_37_1_1_9_1_50",
                "X_2_1_1_1_1_1_5_1_1_10_1_50",
                "X_2_1_1_1_1_1_38_1_1_11_1_50",
                "X_2_1_1_1_1_1_6_1_1_12_1_50",
                "X_2_1_1_1_1_1_39_1_1_13_1_50",
                "X_2_1_1_1_1_1_7_1_1_14_1_50",
                "X_2_1_1_1_1_1_40_1_1_15_1_50",
                "X_2_1_1_1_1_1_8_1_1_16_1_50",
                "X_2_1_1_1_1_1_41_1_1_17_1_50",
                "X_2_1_1_1_1_1_9_1_1_18_1_50",
                "X_2_1_1_1_1_1_42_1_1_19_1_50",
                "X_2_1_1_1_1_1_10_1_1_20_1_50",
                "X_2_1_1_1_1_1_43_1_1_21_1_50",
                "X_2_1_1_1_1_1_11_1_1_22_1_50",
                "X_2_1_1_1_1_1_44_1_1_23_1_50",
                "X_2_1_1_1_1_1_12_1_1_24_1_50",
                "X_2_1_1_1_1_1_45_1_1_25_1_50",
                "X_2_1_1_1_1_1_13_1_1_26_1_50",
                "X_2_1_1_1_1_1_46_1_1_27_1_50",
                "X_2_1_1_1_1_1_14_1_1_28_1_50",
                "X_2_1_1_1_1_1_47_1_1_29_1_50",
                "X_2_1_1_1_1_1_15_1_1_30_1_50",
                "X_2_1_1_1_1_1_48_1_1_31_1_50",
                "X_2_1_1_1_1_1_16_1_1_32_1_50",
                "X_2_1_1_1_1_1_49_1_1_33_1_50",
                "X_2_1_1_1_1_1_17_1_1_34_1_50",
                "X_2_1_1_1_1_1_50_1_1_35_1_50",
                "X_2_1_1_1_1_1_18_1_1_36_1_50",
                "X_2_1_1_1_1_1_51_1_1_37_1_50",
                "X_2_1_1_1_1_1_19_1_1_38_1_50",
                "X_2_1_1_1_1_1_52_1_1_39_1_50",
                "X_2_1_1_1_1_1_20_1_1_40_1_50",
                "X_2_1_1_1_1_1_53_1_1_41_1_50",
                "X_2_1_1_1_1_1_21_1_1_42_1_50",
                "X_2_1_1_1_1_1_54_1_1_43_1_50",
                "X_2_1_1_1_1_1_22_1_1_44_1_50",
                "X_2_1_1_1_1_1_55_1_1_45_1_50",
                "X_2_1_1_1_1_1_23_1_1_46_1_50",
                "X_2_1_1_1_1_1_56_1_1_47_1_50",
                "X_2_1_1_1_1_1_24_1_1_48_1_50",
                "X_2_1_1_1_1_1_57_1_1_49_1_50",
                "X_2_1_1_1_1_1_25_1_1_50_1_50",
                "X_2_1_1_1_1_1_58_1_1_51_1_50",
                "X_2_1_1_1_1_1_26_1_1_52_1_50",
                "X_2_1_1_1_1_1_59_1_1_53_1_50",
                "X_2_1_1_1_1_1_27_1_1_54_1_50",
                "X_2_1_1_1_1_1_60_1_1_55_1_50",
                "X_2_1_1_1_1_1_28_1_1_56_1_50",
                "X_2_1_1_1_1_1_61_1_1_57_1_50",
                "X_2_1_1_1_1_1_29_1_1_58_1_50",
                "X_2_1_1_1_1_1_62_1_1_59_1_50",
                "X_2_1_1_1_1_1_30_1_1_60_1_50",
                "X_2_1_1_1_1_1_63_1_1_61_1_50",
                "X_2_1_1_1_1_1_31_1_1_62_1_50",
                "X_2_1_1_1_1_1_64_1_1_63_1_50",
                "X_2_1_1_1_1_1_32_1_1_64_1_50"
            ],
            "CsaImage.ProtocolSliceNumber": [
                0,
                1,
                2,
                3,
                4,
                5,
                6,
                7,
                8,
                9,
                10,
                11,
                12,
                13,
                14,
                15,
                16,
                17,
                18,
                19,
                20,
                21,
                22,
                23,
                24,
                25,
                26,
                27,
                28,
                29,
                30,
                31,
                32,
                33,
                34,
                35,
                36,
                37,
                38,
                39,
                40,
                41,
                42,
                43,
                44,
                45,
                46,
                47,
                48,
                49,
                50,
                51,
                52,
                53,
                54,
                55,
                56,
                57,
                58,
                59,
                60,
                61,
                62,
                63
            ],
            "CsaImage.SliceMeasurementDuration": [
                59137.5,
                59137.5,
                59137.5,
                59137.5,
                59137.5,
                59137.5,
                59137.5,
                59137.5,
                59137.5,
                59137.5,
                59137.5,
                59137.5,
                59137.5,
                59137.5,
                59137.5,
                59135.0,
                59137.5,
                59135.0,
                59137.5,
                59135.0,
                59137.5,
                59135.0,
                59137.5,
                59135.0,
                59137.5,
                59135.0,
                59137.5,
                59135.0,
                59137.5,
                59135.0,
                59137.5,
                59135.0,
                59137.5,
                59135.0,
                59137.5,
                59135.0,
                59137.5,
                59135.0,
                59137.5,
                59135.0,
                59137.5,
                59135.0,
                59137.5,
                59135.0,
                59137.5,
                59135.0,
                59137.5,
                59135.0,
                59135.0,
                59135.0,
                59135.0,
                59135.0,
                59135.0,
                59137.5,
                59135.0,
                59137.5,
                59135.0,
                59137.5,
                59135.0,
                59137.5,
                59135.0,
                59137.5,
                59135.0,
                59137.5
            ],
            "CsaImage.SlicePosition_PCS": [
                [
                    -105.54801043,
                    -99.79337309,
                    -90.36791992
                ],
                [
                    -105.54801043,
                    -99.79337309,
                    -87.86791992
                ],
                [
                    -105.54801043,
                    -99.79337309,
                    -85.36791992
                ],
                [
                    -105.54801043,
                    -99.79337309,
                    -82.86791992
                ],
                [
                    -105.54801043,
                    -99.79337309,
                    -80.36791992
                ],
                [
                    -105.54801043,
                    -99.79337309,
                    -77.86791992
                ],
                [
                    -105.54801043,
                    -99.79337309,
                    -75.36791992
                ],
                [
                    -105.54801043,
                    -99.79337309,
                    -72.86791992
                ],
                [
                    -105.54801043,
                    -99.79337309,
                    -70.36791992
                ],
                [
                    -105.54801043,
                    -99.79337309,
                    -67.86791992
                ],
                [
                    -105.54801043,
                    -99.79337309,
                    -65.36791992
                ],
                [
                    -105.54801043,
                    -99.79337309,
                    -62.86792374
                ],
                [
                    -105.54801043,
                    -99.79337309,
                    -60.36792374
                ],
                [
                    -105.54801043,
                    -99.79337309,
                    -57.86792374
                ],
                [
                    -105.54801043,
                    -99.79337309,
                    -55.36792374
                ],
                [
                    -105.54801043,
                    -99.79337309,
                    -52.86792374
                ],
                [
                    -105.54801043,
                    -99.79337309,
                    -50.36792374
                ],
                [
                    -105.54801043,
                    -99.79337309,
                    -47.86792374
                ],
                [
                    -105.54801043,
                    -99.79337309,
                    -45.36792374
                ],
                [
                    -105.54801043,
                    -99.79337309,
                    -42.86792374
                ],
                [
                    -105.54801043,
                    -99.79337309,
                    -40.36792374
                ],
                [
                    -105.54801043,
                    -99.79337309,
                    -37.86792374
                ],
                [
                    -105.54801043,
                    -99.79337309,
                    -35.36792374
                ],
                [
                    -105.54801043,
                    -99.79337309,
                    -32.86792374
                ],
                [
                    -105.54801043,
                    -99.79337309,
                    -30.36792183
                ],
                [
                    -105.54801043,
                    -99.79337309,
                    -27.86792183
                ],
                [
                    -105.54801043,
                    -99.79337309,
                    -25.36792183
                ],
                [
                    -105.54801043,
                    -99.79337309,
                    -22.86792183
                ],
                [
                    -105.54801043,
                    -99.79337309,
                    -20.36792183
                ],
                [
                    -105.54801043,
                    -99.79337309,
                    -17.86792183
                ],
                [
                    -105.54801043,
                    -99.79337309,
                    -15.36792278
                ],
                [
                    -105.54801043,
                    -99.79337309,
                    -12.86792278
                ],
                [
                    -105.54801043,
                    -99.79337309,
                    -10.36792278
                ],
                [
                    -105.54801043,
                    -99.79337309,
                    -7.86792278
                ],
                [
                    -105.54801043,
                    -99.79337309,
                    -5.36792278
                ],
                [
                    -105.54801043,
                    -99.79337309,
                    -2.86792278
                ],
                [
                    -105.54801043,
                    -99.79337309,
                    -0.36792269
                ],
                [
                    -105.54801043,
                    -99.79337309,
                    2.13207722
                ],
                [
                    -105.54801043,
                    -99.79337309,
                    4.63207722
                ],
                [
                    -105.54801043,
                    -99.79337309,
                    7.13207722
                ],
                [
                    -105.54801043,
                    -99.79337309,
                    9.63207722
                ],
                [
                    -105.54801043,
                    -99.79337309,
                    12.13207722
                ],
                [
                    -105.54801043,
                    -99.79337309,
                    14.63207722
                ],
                [
                    -105.54801043,
                    -99.79337309,
                    17.13207817
                ],
                [
                    -105.54801043,
                    -99.79337309,
                    19.63207817
                ],
                [
                    -105.54801043,
                    -99.79337309,
                    22.13207817
                ],
                [
                    -105.54801043,
                    -99.79337309,
                    24.63207817
                ],
                [
                    -105.54801043,
                    -99.79337309,
                    27.13207817
                ],
                [
                    -105.54801043,
                    -99.79337309,
                    29.63207817
                ],
                [
                    -105.54801043,
                    -99.79337309,
                    32.13207626
                ],
                [
                    -105.54801043,
                    -99.79337309,
                    34.63207626
                ],
                [
                    -105.54801043,
                    -99.79337309,
                    37.13207626
                ],
                [
                    -105.54801043,
                    -99.79337309,
                    39.63207626
                ],
                [
                    -105.54801043,
                    -99.79337309,
                    42.13207626
                ],
                [
                    -105.54801043,
                    -99.79337309,
                    44.63207626
                ],
                [
                    -105.54801043,
                    -99.79337309,
                    47.13207626
                ],
                [
                    -105.54801043,
                    -99.79337309,
                    49.63207626
                ],
                [
                    -105.54801043,
                    -99.79337309,
                    52.13207626
                ],
                [
                    -105.54801043,
                    -99.79337309,
                    54.63207626
                ],
                [
                    -105.54801043,
                    -99.79337309,
                    57.13207626
                ],
                [
                    -105.54801043,
                    -99.79337309,
                    59.63207626
                ],
                [
                    -105.54801043,
                    -99.79337309,
                    62.13207626
                ],
                [
                    -105.54801043,
                    -99.79337309,
                    64.63208008
                ],
                [
                    -105.54801043,
                    -99.79337309,
                    67.13208008
                ]
            ],
            "CsaImage.TimeAfterStart": [
                0.715,
                0.4775,
                0.7225,
                0.485,
                0.73,
                0.4925,
                0.7375,
                0.5,
                0.745,
                0.5075,
                0.7525,
                0.515,
                0.76,
                0.5225,
                0.7675,
                0.53,
                0.775,
                0.5375,
                0.7825,
                0.545,
                0.79,
                0.5525,
                0.7975,
                0.56,
                0.805,
                0.5675,
                0.8125,
                0.575,
                0.82,
                0.5825,
                0.8275,
                0.59,
                0.835,
                0.5975,
                0.8425,
                0.605,
                0.85,
                0.6125,
                0.8575,
                0.62,
                0.865,
                0.6275,
                0.8725,
                0.635,
                0.88,
                0.6425,
                0.8875,
                0.65,
                0.895,
                0.6575,
                0.9025,
                0.665,
                0.91,
                0.6725,
                0.9175,
                0.68,
                0.925,
                0.6875,
                0.9325,
                0.695,
                0.94,
                0.7,
                0.9475,
                0.7075
            ],
            "ImagePositionPatient": [
                [
                    -105.54801043041,
                    -99.793373086374,
                    -90.367919921875
                ],
                [
                    -105.54801043041,
                    -99.793373086374,
                    -87.867919921875
                ],
                [
                    -105.54801043041,
                    -99.793373086374,
                    -85.367919921875
                ],
                [
                    -105.54801043041,
                    -99.793373086374,
                    -82.867919921875
                ],
                [
                    -105.54801043041,
                    -99.793373086374,
                    -80.367919921875
                ],
                [
                    -105.54801043041,
                    -99.793373086374,
                    -77.867919921875
                ],
                [
                    -105.54801043041,
                    -99.793373086374,
                    -75.367919921875
                ],
                [
                    -105.54801043041,
                    -99.793373086374,
                    -72.867919921875
                ],
                [
                    -105.54801043041,
                    -99.793373086374,
                    -70.367919921875
                ],
                [
                    -105.54801043041,
                    -99.793373086374,
                    -67.867919921875
                ],
                [
                    -105.54801043041,
                    -99.793373086374,
                    -65.367919921875
                ],
                [
                    -105.54801043041,
                    -99.793373086374,
                    -62.867923736572
                ],
                [
                    -105.54801043041,
                    -99.793373086374,
                    -60.367923736572
                ],
                [
                    -105.54801043041,
                    -99.793373086374,
                    -57.867923736572
                ],
                [
                    -105.54801043041,
                    -99.793373086374,
                    -55.367923736572
                ],
                [
                    -105.54801043041,
                    -99.793373086374,
