{
  "AcquisitionMatrixPE": 104,
  "AcquisitionNumber": 1,
  "AcquisitionTime": "15:31:20.547500",
  "BandwidthPerPixelPhaseEncode": 43.054,
  "BaseResolution": 104,
  "CoilString": "C:E1_2",
  "ConversionSoftware": "dcm2niix",
  "ConversionSoftwareVersion": "v1.0.20191031",
  "DerivedVendorReportedEchoSpacing": 0.000669999,
  "DeviceSerialNumber": "18932",
  "DwellTime": 2.8e-06,
  "EchoTime": 0.02,
  "EffectiveEchoSpacing": 0.000223333,
  "FlipAngle": 30,
  "ImageComments": "Unaliased_MB2_PE2",
  "ImageOrientationPatientDICOM": [1, 0, 0, 0, 0.975535, -0.219846],
  "ImageType": [
    "ORIGINAL",
    "PRIMARY",
    "M",
    "MB",
    "ND",
    "MOSAIC"
],
  "ImagingFrequency": 297.229,
  "InPlanePhaseEncodingDirectionDICOM": "COL",
  "InstitutionAddress": "Richmond_Street_North_1151_London_409EF2_Ontario_CA_N6A_5B7",
  "InstitutionName": "Robarts_Reserch_Institute",
  "InstitutionalDepartmentName": "Department",
  "MRAcquisitionType": "2D",
  "MagneticFieldStrength": 6.98,
  "Manufacturer": "Siemens",
  "ManufacturersModelName": "Investigational_Device_7T",
  "Modality": "MR",
  "MultibandAccelerationFactor": 2,
  "ParallelReductionFactorInPlane": 3,
  "PartialFourier": 0.875,
  "PatientPosition": "HFS",
  "PercentPhaseFOV": 100,
  "PhaseEncodingDirection": "j-",
  "PhaseEncodingSteps": 91,
  "PhaseResolution": 1,
  "PixelBandwidth": 1717,
  "ProcedureStepDescription": "Diedrichsen_SeqRep4",
  "ProtocolName": "mbep2d_bold_mb2_p3_AP_2iso",
  "PulseSequenceDetails": "%CustomerSeq%_cmrr_mbep2d_bold",
  "ReceiveCoilName": "CFMM_8Tx32Rx",
  "ReconMatrixPE": 104,
  "RefLinesPE": 36,
  "RepetitionTime": 1,
  "ScanOptions": "PFP_FS",
  "ScanningSequence": "EP",
  "SequenceName": "epfid2d1_104",
  "SequenceVariant": "SK_SS",
  "SeriesDescription": "mbep2d_bold_mb2_p3_AP_2iso",
  "SeriesNumber": 30,
  "ShimSetting": [43, 2073, 130, 1348, 227, 18, 60, -240],
  "SliceThickness": 2,
  "SliceTiming": [0, 0.2275, 0.455, 0.6825, 0.9125, 0.135, 0.365, 0.5925, 0.82, 0.045, 0.2725, 0.5, 0.73, 0.9575, 0.1825, 0.41, 0.6375, 0.865, 0.09, 0.3175, 0.5475, 0.775, 0, 0.2275, 0.455, 0.6825, 0.9125, 0.135, 0.365, 0.5925, 0.82, 0.045, 0.2725, 0.5, 0.73, 0.9575, 0.1825, 0.41, 0.6375, 0.865, 0.09, 0.3175, 0.5475, 0.775],
  "SoftwareVersions": "syngo_MR_B17",
  "SpacingBetweenSlices": 2,
  "StationName": "MASTER",
  "TaskName": "dsp",
  "TotalReadoutTime": 0.0230033,
  "TxRefAmp": 120,
  "dcmmeta_affine": [
    [-2.0, 0.0, 0.0, 105.4527816772461],
    [0.0, 1.9510691165924072, -0.4396924078464508, -105.30754089355469],
    [0.0, 0.4396924078464508, 1.9510689973831177, -38.27162170410156],
    [0.0, 0.0, 0.0, 1.0]
],
  "dcmmeta_reorient_transform": [
    [0.0, -1.0, 0.0, 103.0],
    [1.0, 0.0, 0.0, 0.0],
    [0.0, 0.0, 1.0, 0.0],
    [0.0, 0.0, 0.0, 1.0]
],
  "dcmmeta_shape": [104, 104, 44, 330],
  "dcmmeta_slice_dim": 2,
  "dcmmeta_version": 0.6,
  "global": {
    "const": {
      "AcquisitionMatrix": [104, 0, 0, 104],
      "AngioFlag": "N",
      "BitsAllocated": 16,
      "BitsStored": 12,
      "Columns": 728,
      "EchoNumbers": 1,
      "EchoTime": 20.0,
      "EchoTrainLength": 1,
      "FlipAngle": 30.0,
      "HighBit": 11,
      "ImageOrientationPatient": [1.0, 0.0, 0.0, 0.0, 0.97553454431481, -0.2198462027157],
      "ImagePositionPatient": [-729.45278453827, -704.38612969124, 144.20072741813],
      "ImageType": [
        "ORIGINAL",
        "PRIMARY",
        "M",
        "MB",
        "ND",
        "MOSAIC"
],
      "ImagedNucleus": "1H",
      "ImagingFrequency": 297.228776,
      "InPlanePhaseEncodingDirection": "COL",
      "MRAcquisitionType": "2D",
      "MagneticFieldStrength": 6.98,
      "Manufacturer": "SIEMENS",
      "ManufacturerModelName": "Investigational_Device_7T",
      "Modality": "MR",
      "NumberOfAverages": 1.0,
      "NumberOfPhaseEncodingSteps": 91,
      "PercentPhaseFieldOfView": 100.0,
      "PercentSampling": 100.0,
      "PerformedProcedureStepStartTime": "141304.296000",
      "PhotometricInterpretation": "MONOCHROME2",
      "PixelBandwidth": 1717.0,
      "PixelRepresentation": 0,
      "PixelSpacing": [2.0, 2.0],
      "ProtocolName": "mbep2d_bold_mb2_p3_AP 2iso",
      "RepetitionTime": 1000.0,
      "Rows": 728,
      "SAR": 0.0,
      "SamplesPerPixel": 1,
      "ScanOptions": [
        "PFP",
        "FS"
],
      "ScanningSequence": "EP",
      "SequenceName": "epfid2d1_104",
      "SequenceVariant": [
        "SK",
        "SS"
],
      "SeriesDescription": "mbep2d_bold_mb2_p3_AP 2iso",
      "SeriesNumber": 30,
      "SeriesTime": "153147.375000",
      "SliceLocation": -14.183824946493,
      "SliceThickness": 2.0,
      "SmallestImagePixelValue": 0,
      "SoftwareVersions": "syngo MR B17",
      "SpacingBetweenSlices": 1.9999999517033,
      "SpecificCharacterSet": "ISO_IR 100",
      "StudyID": "1",
      "StudyTime": "141304.171000",
      "TransmitCoilName": "CFMM_8Tx32Rx",
      "VariableFlipAngleFlag": "N",
      "WindowCenterWidthExplanation": "Algo1",
      "dBdt": 0.0},
    "slices": {}
  },
  "time": {
    "samples": {
      "AcquisitionNumber": [1, 2, 3, 4, 5, 6, 7, 8, 9, 10, 11, 12, 13, 14, 15, 16, 17, 18, 19, 20, 21, 22, 23, 24, 25, 26, 27, 28, 29, 30, 31, 32, 33, 34, 35, 36, 37, 38, 39, 40, 41, 42, 43, 44, 45, 46, 47, 48, 49, 50, 51, 52, 53, 54, 55, 56, 57, 58, 59, 60, 61, 62, 63, 64, 65, 66, 67, 68, 69, 70, 71, 72, 73, 74, 75, 76, 77, 78, 79, 80, 81, 82, 83, 84, 85, 86, 87, 88, 89, 90, 91, 92, 93, 94, 95, 96, 97, 98, 99, 100, 101, 102, 103, 104, 105, 106, 107, 108, 109, 110, 111, 112, 113, 114, 115, 116, 117, 118, 119, 120, 121, 122, 123, 124, 125, 126, 127, 128, 129, 130, 131, 132, 133, 134, 135, 136, 137, 138, 139, 140, 141, 142, 143, 144, 145, 146, 147, 148, 149, 150, 151, 152, 153, 154, 155, 156, 157, 158, 159, 160, 161, 162, 163, 164, 165, 166, 167, 168, 169, 170, 171, 172, 173, 174, 175, 176, 177, 178, 179, 180, 181, 182, 183, 184, 185, 186, 187, 188, 189, 190, 191, 192, 193, 194, 195, 196, 197, 198, 199, 200, 201, 202, 203, 204, 205, 206, 207, 208, 209, 210, 211, 212, 213, 214, 215, 216, 217, 218, 219, 220, 221, 222, 223, 224, 225, 226, 227, 228, 229, 230, 231, 232, 233, 234, 235, 236, 237, 238, 239, 240, 241, 242, 243, 244, 245, 246, 247, 248, 249, 250, 251, 252, 253, 254, 255, 256, 257, 258, 259, 260, 261, 262, 263, 264, 265, 266, 267, 268, 269, 270, 271, 272, 273, 274, 275, 276, 277, 278, 279, 280, 281, 282, 283, 284, 285, 286, 287, 288, 289, 290, 291, 292, 293, 294, 295, 296, 297, 298, 299, 300, 301, 302, 303, 304, 305, 306, 307, 308, 309, 310, 311, 312, 313, 314, 315, 316, 317, 318, 319, 320, 321, 322, 323, 324, 325, 326, 327, 328, 329, 330],
      "AcquisitionTime": ["153120.547500", "153121.550000", "153122.555000", "153123.560000", "153124.562500", "153125.567500", "153126.570000", "153127.575000", "153128.580000", "153129.582500", "153130.587500", "153131.590000", "153132.595000", "153133.600000", "153134.602500", "153135.607500", "153136.610000", "153137.615000", "153138.620000", "153139.622500", "153140.627500", "153141.630000", "153142.635000", "153143.640000", "153144.642500", "153145.647500", "153146.650000", "153147.655000", "153148.660000", "153149.662500", "153150.667500", "153151.670000", "153152.675000", "153153.680000", "153154.682500", "153155.687500", "153156.692500", "153157.695000", "153158.700000", "153159.702500", "153200.707500", "153201.712500", "153202.715000", "153203.720000", "153204.722500", "153205.727500", "153206.732500", "153207.735000", "153208.740000", "153209.742500", "153210.747500", "153211.752500", "153212.755000", "153213.760000", "153214.762500", "153215.767500", "153216.772500", "153217.775000", "153218.780000", "153219.782500", "153220.787500", "153221.792500", "153222.795000", "153223.800000", "153224.802500", "153225.807500", "153226.812500", "153227.815000", "153228.820000", "153229.825000", "153230.827500", "153231.832500", "153232.835000", "153233.840000", "153234.845000", "153235.847500", "153236.852500", "153237.855000", "153238.860000", "153239.865000", "153240.867500", "153241.872500", "153242.875000", "153243.880000", "153244.885000", "153245.887500", "153246.892500", "153247.895000", "153248.900000", "153249.905000", "153250.907500", "153251.912500", "153252.915000", "153253.920000", "153254.925000", "153255.927500", "153256.932500", "153257.937500", "153258.940000", "153259.945000", "153300.947500", "153301.952500", "153302.957500", "153303.960000", "153304.965000", "153305.967500", "153306.972500", "153307.977500", "153308.980000", "153309.985000", "153310.987500", "153311.992500", "153312.997500", "153314.000000", "153315.005000", "153316.007500", "153317.012500", "153318.017500", "153319.020000", "153320.025000", "153321.027500", "153322.032500", "153323.037500", "153324.040000", "153325.045000", "153326.047500", "153327.052500", "153328.057500", "153329.060000", "153330.065000", "153331.070000", "153332.072500", "153333.077500", "153334.080000", "153335.085000", "153336.090000", "153337.092500", "153338.097500", "153339.100000", "153340.105000", "153341.110000", "153342.112500", "153343.117500", "153344.120000", "153345.125000", "153346.130000", "153347.132500", "153348.137500", "153349.140000", "153350.145000", "153351.150000", "153352.152500", "153353.157500", "153354.160000", "153355.165000", "153356.170000", "153357.172500", "153358.177500", "153359.182500", "153400.185000", "153401.190000", "153402.192500", "153403.197500", "153404.202500", "153405.205000", "153406.210000", "153407.212500", "153408.217500", "153409.222500", "153410.225000", "153411.230000", "153412.232500", "153413.237500", "153414.242500", "153415.245000", "153416.250000", "153417.252500", "153418.257500", "153419.262500", "153420.265000", "153421.270000", "153422.272500", "153423.277500", "153424.282500", "153425.285000", "153426.290000", "153427.292500", "153428.297500", "153429.302500", "153430.305000", "153431.310000", "153432.315000", "153433.317500", "153434.322500", "153435.325000", "153436.330000", "153437.335000", "153438.337500", "153439.342500", "153440.345000", "153441.350000", "153442.355000", "153443.357500", "153444.362500", "153445.365000", "153446.370000", "153447.375000", "153448.377500", "153449.382500", "153450.385000", "153451.390000", "153452.395000", "153453.397500", "153454.402500", "153455.405000", "153456.410000", "153457.415000", "153458.417500", "153459.422500", "153500.425000", "153501.430000", "153502.435000", "153503.437500", "153504.442500", "153505.447500", "153506.450000", "153507.455000", "153508.457500", "153509.462500", "153510.467500", "153511.470000", "153512.475000", "153513.477500", "153514.482500", "153515.487500", "153516.490000", "153517.495000", "153518.497500", "153519.502500", "153520.507500", "153521.510000", "153522.515000", "153523.517500", "153524.522500", "153525.527500", "153526.530000", "153527.535000", "153528.537500", "153529.542500", "153530.547500", "153531.550000", "153532.555000", "153533.560000", "153534.562500", "153535.567500", "153536.570000", "153537.575000", "153538.580000", "153539.582500", "153540.587500", "153541.590000", "153542.595000", "153543.600000", "153544.602500", "153545.607500", "153546.610000", "153547.615000", "153548.620000", "153549.622500", "153550.627500", "153551.630000", "153552.635000", "153553.640000", "153554.642500", "153555.647500", "153556.650000", "153557.655000", "153558.660000", "153559.662500", "153600.667500", "153601.670000", "153602.675000", "153603.680000", "153604.682500", "153605.687500", "153606.692500", "153607.695000", "153608.700000", "153609.702500", "153610.707500", "153611.712500", "153612.715000", "153613.720000", "153614.722500", "153615.727500", "153616.732500", "153617.735000", "153618.740000", "153619.742500", "153620.747500", "153621.752500", "153622.755000", "153623.760000", "153624.762500", "153625.767500", "153626.772500", "153627.775000", "153628.780000", "153629.782500", "153630.787500", "153631.792500", "153632.795000", "153633.800000", "153634.802500", "153635.807500", "153636.812500", "153637.815000", "153638.820000", "153639.825000", "153640.827500", "153641.832500", "153642.835000", "153643.840000", "153644.845000", "153645.847500", "153646.852500", "153647.855000", "153648.860000", "153649.865000", "153650.867500"],
      "ContentTime": ["153147.375000", "153147.390000", "153147.390000", "153147.390000", "153147.406000", "153147.406000", "153147.406000", "153147.406000", "153147.406000", "153147.406000", "153147.406000", "153147.421000", "153147.421000", "153147.421000", "153147.421000", "153147.421000", "153147.421000", "153147.421000", "153147.437000", "153147.437000", "153147.437000", "153147.437000", "153147.437000", "153147.437000", "153147.437000", "153207.328000", "153207.328000", "153207.328000", "153207.328000", "153207.328000", "153207.343000", "153207.343000", "153207.343000", "153207.343000", "153207.343000", "153207.343000", "153207.343000", "153207.359000", "153207.359000", "153207.359000", "153207.359000", "153207.359000", "153207.359000", "153207.359000", "153207.359000", "153227.328000", "153227.328000", "153227.328000", "153227.328000", "153227.343000", "153227.343000", "153227.343000", "153227.343000", "153227.343000", "153227.343000", "153227.359000", "153227.359000", "153227.359000", "153227.359000", "153227.359000", "153227.359000", "153227.359000", "153227.359000", "153227.375000", "153227.375000", "153247.328000", "153247.328000", "153247.328000", "153247.328000", "153247.328000", "153247.328000", "153247.343000", "153247.343000", "153247.343000", "153247.343000", "153247.343000", "153247.359000", "153247.359000", "153247.359000", "153247.359000", "153247.359000", "153247.359000", "153247.359000", "153247.375000", "153247.375000", "153307.328000", "153307.328000", "153307.328000", "153307.343000", "153307.343000", "153307.343000", "153307.343000", "153307.343000", "153307.343000", "153307.343000", "153307.359000", "153307.359000", "153307.359000", "153307.359000", "153307.359000", "153307.375000", "153307.375000", "153307.375000", "153307.375000", "153307.375000", "153327.328000", "153327.328000", "153327.328000", "153327.328000", "153327.328000", "153327.328000", "153327.343000", "153327.343000", "153327.343000", "153327.343000", "153327.343000", "153327.343000", "153327.343000", "153327.359000", "153327.359000", "153327.359000", "153327.359000", "153327.359000", "153327.359000", "153327.359000", "153347.328000", "153347.328000", "153347.328000", "153347.328000", "153347.328000", "153347.328000", "153347.343000", "153347.343000", "153347.343000", "153347.343000", "153347.343000", "153347.343000", "153347.343000", "153347.359000", "153347.359000", "153347.359000", "153347.359000", "153347.359000", "153347.359000", "153347.359000", "153407.328000", "153407.328000", "153407.328000", "153407.328000", "153407.328000", "153407.328000", "153407.343000", "153407.343000", "153407.343000", "153407.343000", "153407.343000", "153407.359000", "153407.359000", "153407.359000", "153407.359000", "153407.359000", "153407.359000", "153407.359000", "153407.375000", "153407.375000", "153427.328000", "153427.328000", "153427.328000", "153427.328000", "153427.343000", "153427.343000", "153427.343000", "153427.343000", "153427.343000", "153427.343000", "153427.343000", "153427.359000", "153427.359000", "153427.359000", "153427.359000", "153427.359000", "153427.375000", "153427.375000", "153427.375000", "153427.375000", "153447.328000", "153447.328000", "153447.328000", "153447.328000", "153447.343000", "153447.343000", "153447.343000", "153447.343000", "153447.343000", "153447.343000", "153447.343000", "153447.359000", "153447.359000", "153447.359000", "153447.359000", "153447.375000", "153447.375000", "153447.390000", "153447.390000", "153447.390000", "153507.328000", "153507.328000", "153507.328000", "153507.343000", "153507.343000", "153507.343000", "153507.343000", "153507.343000", "153507.343000", "153507.359000", "153507.359000", "153507.359000", "153507.359000", "153507.359000", "153507.359000", "153507.359000", "153507.375000", "153507.375000", "153507.375000", "153507.375000", "153527.328000", "153527.328000", "153527.328000", "153527.328000", "153527.328000", "153527.328000", "153527.343000", "153527.343000", "153527.343000", "153527.343000", "153527.343000", "153527.343000", "153527.343000", "153527.343000", "153527.359000", "153527.359000", "153527.359000", "153527.359000", "153527.375000", "153527.375000", "153547.328000", "153547.328000", "153547.328000", "153547.343000", "153547.343000", "153547.343000", "153547.343000", "153547.343000", "153547.343000", "153547.343000", "153547.343000", "153547.359000", "153547.359000", "153547.359000", "153547.359000", "153547.359000", "153547.359000", "153547.359000", "153547.375000", "153547.375000", "153607.328000", "153607.328000", "153607.328000", "153607.328000", "153607.328000", "153607.328000", "153607.343000", "153607.343000", "153607.343000", "153607.343000", "153607.343000", "153607.343000", "153607.343000", "153607.359000", "153607.359000", "153607.359000", "153607.359000", "153607.359000", "153607.359000", "153607.359000", "153627.328000", "153627.328000", "153627.328000", "153627.328000", "153627.328000", "153627.328000", "153627.343000", "153627.343000", "153627.343000", "153627.343000", "153627.343000", "153627.343000", "153627.343000", "153627.359000", "153627.359000", "153627.359000", "153627.359000", "153627.359000", "153627.359000", "153627.359000", "153647.328000", "153647.328000", "153647.328000", "153647.328000", "153647.343000", "153647.343000", "153647.343000", "153647.343000", "153647.343000", "153647.343000", "153647.343000", "153647.359000", "153647.359000", "153647.359000", "153647.359000", "153647.359000", "153647.359000", "153647.375000", "153647.375000", "153647.375000", "153656.406000", "153656.406000", "153656.406000", "153656.406000", "153656.406000"],
      "InstanceCreationTime": ["153147.375000", "153147.390000", "153147.390000", "153147.390000", "153147.406000", "153147.406000", "153147.406000", "153147.406000", "153147.406000", "153147.406000", "153147.406000", "153147.421000", "153147.421000", "153147.421000", "153147.421000", "153147.421000", "153147.421000", "153147.421000", "153147.437000", "153147.437000", "153147.437000", "153147.437000", "153147.437000", "153147.437000", "153147.437000", "153207.328000", "153207.328000", "153207.328000", "153207.328000", "153207.328000", "153207.343000", "153207.343000", "153207.343000", "153207.343000", "153207.343000", "153207.343000", "153207.343000", "153207.359000", "153207.359000", "153207.359000", "153207.359000", "153207.359000", "153207.359000", "153207.359000", "153207.359000", "153227.328000", "153227.328000", "153227.328000", "153227.328000", "153227.343000", "153227.343000", "153227.343000", "153227.343000", "153227.343000", "153227.343000", "153227.359000", "153227.359000", "153227.359000", "153227.359000", "153227.359000", "153227.359000", "153227.359000", "153227.359000", "153227.375000", "153227.375000", "153247.328000", "153247.328000", "153247.328000", "153247.328000", "153247.328000", "153247.328000", "153247.343000", "153247.343000", "153247.343000", "153247.343000", "153247.343000", "153247.359000", "153247.359000", "153247.359000", "153247.359000", "153247.359000", "153247.359000", "153247.359000", "153247.375000", "153247.375000", "153307.328000", "153307.328000", "153307.328000", "153307.343000", "153307.343000", "153307.343000", "153307.343000", "153307.343000", "153307.343000", "153307.343000", "153307.359000", "153307.359000", "153307.359000", "153307.359000", "153307.359000", "153307.375000", "153307.375000", "153307.375000", "153307.375000", "153307.375000", "153327.328000", "153327.328000", "153327.328000", "153327.328000", "153327.328000", "153327.328000", "153327.343000", "153327.343000", "153327.343000", "153327.343000", "153327.343000", "153327.343000", "153327.343000", "153327.359000", "153327.359000", "153327.359000", "153327.359000", "153327.359000", "153327.359000", "153327.359000", "153347.328000", "153347.328000", "153347.328000", "153347.328000", "153347.328000", "153347.328000", "153347.343000", "153347.343000", "153347.343000", "153347.343000", "153347.343000", "153347.343000", "153347.343000", "153347.359000", "153347.359000", "153347.359000", "153347.359000", "153347.359000", "153347.359000", "153347.359000", "153407.328000", "153407.328000", "153407.328000", "153407.328000", "153407.328000", "153407.328000", "153407.343000", "153407.343000", "153407.343000", "153407.343000", "153407.343000", "153407.359000", "153407.359000", "153407.359000", "153407.359000", "153407.359000", "153407.359000", "153407.359000", "153407.375000", "153407.375000", "153427.328000", "153427.328000", "153427.328000", "153427.328000", "153427.343000", "153427.343000", "153427.343000", "153427.343000", "153427.343000", "153427.343000", "153427.343000", "153427.359000", "153427.359000", "153427.359000", "153427.359000", "153427.359000", "153427.375000", "153427.375000", "153427.375000", "153427.375000", "153447.328000", "153447.328000", "153447.328000", "153447.328000", "153447.343000", "153447.343000", "153447.343000", "153447.343000", "153447.343000", "153447.343000", "153447.343000", "153447.359000", "153447.359000", "153447.359000", "153447.359000", "153447.375000", "153447.375000", "153447.390000", "153447.390000", "153447.390000", "153507.328000", "153507.328000", "153507.328000", "153507.343000", "153507.343000", "153507.343000", "153507.343000", "153507.343000", "153507.343000", "153507.359000", "153507.359000", "153507.359000", "153507.359000", "153507.359000", "153507.359000", "153507.359000", "153507.375000", "153507.375000", "153507.375000", "153507.375000", "153527.328000", "153527.328000", "153527.328000", "153527.328000", "153527.328000", "153527.328000", "153527.343000", "153527.343000", "153527.343000", "153527.343000", "153527.343000", "153527.343000", "153527.343000", "153527.343000", "153527.359000", "153527.359000", "153527.359000", "153527.359000", "153527.375000", "153527.375000", "153547.328000", "153547.328000", "153547.328000", "153547.343000", "153547.343000", "153547.343000", "153547.343000", "153547.343000", "153547.343000", "153547.343000", "153547.343000", "153547.359000", "153547.359000", "153547.359000", "153547.359000", "153547.359000", "153547.359000", "153547.359000", "153547.375000", "153547.375000", "153607.328000", "153607.328000", "153607.328000", "153607.328000", "153607.328000", "153607.328000", "153607.343000", "153607.343000", "153607.343000", "153607.343000", "153607.343000", "153607.343000", "153607.343000", "153607.359000", "153607.359000", "153607.359000", "153607.359000", "153607.359000", "153607.359000", "153607.359000", "153627.328000", "153627.328000", "153627.328000", "153627.328000", "153627.328000", "153627.328000", "153627.343000", "153627.343000", "153627.343000", "153627.343000", "153627.343000", "153627.343000", "153627.343000", "153627.359000", "153627.359000", "153627.359000", "153627.359000", "153627.359000", "153627.359000", "153627.359000", "153647.328000", "153647.328000", "153647.328000", "153647.328000", "153647.343000", "153647.343000", "153647.343000", "153647.343000", "153647.343000", "153647.343000", "153647.343000", "153647.359000", "153647.359000", "153647.359000", "153647.359000", "153647.359000", "153647.359000", "153647.375000", "153647.375000", "153647.375000", "153656.406000", "153656.406000", "153656.406000", "153656.406000", "153656.406000"],
      "InstanceNumber": [1, 2, 3, 4, 5, 6, 7, 8, 9, 10, 11, 12, 13, 14, 15, 16, 17, 18, 19, 20, 21, 22, 23, 24, 25, 26, 27, 28, 29, 30, 31, 32, 33, 34, 35, 36, 37, 38, 39, 40, 41, 42, 43, 44, 45, 46, 47, 48, 49, 50, 51, 52, 53, 54, 55, 56, 57, 58, 59, 60, 61, 62, 63, 64, 65, 66, 67, 68, 69, 70, 71, 72, 73, 74, 75, 76, 77, 78, 79, 80, 81, 82, 83, 84, 85, 86, 87, 88, 89, 90, 91, 92, 93, 94, 95, 96, 97, 98, 99, 100, 101, 102, 103, 104, 105, 106, 107, 108, 109, 110, 111, 112, 113, 114, 115, 116, 117, 118, 119, 120, 121, 122, 123, 124, 125, 126, 127, 128, 129, 130, 131, 132, 133, 134, 135, 136, 137, 138, 139, 140, 141, 142, 143, 144, 145, 146, 147, 148, 149, 150, 151, 152, 153, 154, 155, 156, 157, 158, 159, 160, 161, 162, 163, 164, 165, 166, 167, 168, 169, 170, 171, 172, 173, 174, 175, 176, 177, 178, 179, 180, 181, 182, 183, 184, 185, 186, 187, 188, 189, 190, 191, 192, 193, 194, 195, 196, 197, 198, 199, 200, 201, 202, 203, 204, 205, 206, 207, 208, 209, 210, 211, 212, 213, 214, 215, 216, 217, 218, 219, 220, 221, 222, 223, 224, 225, 226, 227, 228, 229, 230, 231, 232, 233, 234, 235, 236, 237, 238, 239, 240, 241, 242, 243, 244, 245, 246, 247, 248, 249, 250, 251, 252, 253, 254, 255, 256, 257, 258, 259, 260, 261, 262, 263, 264, 265, 266, 267, 268, 269, 270, 271, 272, 273, 274, 275, 276, 277, 278, 279, 280, 281, 282, 283, 284, 285, 286, 287, 288, 289, 290, 291, 292, 293, 294, 295, 296, 297, 298, 299, 300, 301, 302, 303, 304, 305, 306, 307, 308, 309, 310, 311, 312, 313, 314, 315, 316, 317, 318, 319, 320, 321, 322, 323, 324, 325, 326, 327, 328, 329, 330],
      "LargestImagePixelValue": [2397, 2359, 2297, 2303, 2323, 2334, 2273, 2388, 2363, 2315, 2343, 2317, 2330, 2328, 2332, 2336, 2352, 2376, 2273, 2295, 2346, 2329, 2336, 2312, 2318, 2333, 2293, 2289, 2358, 2368, 2380, 2377, 2427, 2346, 2345, 2410, 2404, 2419, 2315, 2372, 2404, 2371, 2296, 2339, 2275, 2310, 2334, 2277, 2284, 2333, 2489, 2403, 2356, 2310, 2335, 2397, 2376, 2294, 2314, 2366, 2479, 2483, 2425, 2365, 2417, 2371, 2418, 2420, 2327, 2340, 2428, 2407, 2452, 2402, 2420, 2386, 2375, 2400, 2420, 2353, 2325, 2392, 2403, 2342, 2280, 2358, 2394, 2351, 2325, 2332, 2376, 2410, 2354, 2431, 2306, 2302, 2407, 2335, 2307, 2357, 2406, 2403, 2428, 2322, 2380, 2437, 2360, 2330, 2338, 2388, 2480, 2288, 2314, 2326, 2367, 2425, 2405, 2464, 2396, 2310, 2331, 2363, 2398, 2301, 2367, 2434, 2389, 2353, 2410, 2462, 2436, 2389, 2445, 2407, 2340, 2356, 2463, 2458, 2398, 2472, 2477, 2442, 2410, 2398, 2404, 2380, 2400, 2345, 2422, 2394, 2407, 2328, 2443, 2424, 2376, 2363, 2381, 2366, 2389, 2370, 2396, 2381, 2395, 2333, 2341, 2315, 2301, 2403, 2344, 2314, 2369, 2430, 2454, 2436, 2390, 2374, 2364, 2349, 2301, 2418, 2411, 2422, 2357, 2337, 2344, 2414, 2369, 2375, 2444, 2499, 2412, 2465, 2468, 2391, 2383, 2377, 2431, 2312, 2378, 2377, 2331, 2319, 2377, 2324, 2332, 2399, 2355, 2412, 2411, 2400, 2295, 2383, 2399, 2371, 2402, 2332, 2361, 2383, 2389, 2376, 2400, 2390, 2385, 2377, 2376, 2361, 2418, 2407, 2358, 2352, 2411, 2350, 2352, 2359, 2401, 2294, 2285, 2335, 2333, 2345, 2386, 2406, 2346, 2371, 2291, 2361, 2360, 2368, 2358, 2382, 2380, 2319, 2288, 2291, 2296, 2265, 2312, 2313, 2324, 2369, 2303, 2324, 2280, 2305, 2364, 2323, 2316, 2340, 2350, 2323, 2355, 2360, 2348, 2381, 2363, 2376, 2326, 2318, 2341, 2336, 2365, 2376, 2299, 2331, 2308, 2312, 2341, 2343, 2307, 2316, 2403, 2335, 2329, 2381, 2364, 2355, 2364, 2386, 2288, 2333, 2410, 2398, 2390, 2316, 2415, 2322, 2370, 2363, 2329, 2336, 2330, 2404, 2358, 2381, 2365, 2397, 2376, 2345, 2375, 2365, 2404, 2306, 2298, 2307, 2336, 2249, 2385, 2323, 2406, 2357],
      "WindowCenter": [420.0, 418.0, 417.0, 416.0, 416.0, 417.0, 417.0, 416.0, 416.0, 417.0, 418.0, 418.0, 417.0, 418.0, 419.0, 419.0, 419.0, 419.0, 419.0, 419.0, 419.0, 420.0, 421.0, 419.0, 418.0, 419.0, 419.0, 418.0, 418.0, 418.0, 418.0, 418.0, 418.0, 418.0, 418.0, 418.0, 418.0, 418.0, 418.0, 419.0, 422.0, 421.0, 420.0, 422.0, 421.0, 419.0, 419.0, 418.0, 418.0, 419.0, 420.0, 420.0, 420.0, 419.0, 419.0, 418.0, 418.0, 418.0, 418.0, 417.0, 418.0, 418.0, 417.0, 417.0, 418.0, 416.0, 417.0, 418.0, 418.0, 419.0, 420.0, 419.0, 420.0, 419.0, 419.0, 420.0, 418.0, 418.0, 420.0, 419.0, 419.0, 419.0, 419.0, 418.0, 417.0, 417.0, 418.0, 418.0, 417.0, 417.0, 418.0, 418.0, 416.0, 418.0, 418.0, 418.0, 420.0, 421.0, 419.0, 418.0, 418.0, 418.0, 417.0, 417.0, 417.0, 419.0, 417.0, 417.0, 417.0, 418.0, 419.0, 416.0, 415.0, 416.0, 417.0, 417.0, 416.0, 418.0, 418.0, 417.0, 417.0, 418.0, 418.0, 419.0, 419.0, 420.0, 420.0, 419.0, 419.0, 420.0, 421.0, 420.0, 421.0, 421.0, 419.0, 418.0, 419.0, 420.0, 419.0, 419.0, 419.0, 419.0, 419.0, 418.0, 417.0, 418.0, 418.0, 418.0, 420.0, 418.0, 419.0, 419.0, 421.0, 420.0, 420.0, 420.0, 420.0, 421.0, 420.0, 420.0, 420.0, 419.0, 420.0, 420.0, 420.0, 420.0, 420.0, 420.0, 419.0, 420.0, 420.0, 419.0, 418.0, 420.0, 421.0, 420.0, 419.0, 418.0, 417.0, 418.0, 418.0, 418.0, 418.0, 418.0, 418.0, 418.0, 417.0, 417.0, 416.0, 417.0, 417.0, 417.0, 418.0, 419.0, 420.0, 420.0, 422.0, 421.0, 421.0, 421.0, 421.0, 419.0, 419.0, 418.0, 419.0, 418.0, 419.0, 419.0, 419.0, 421.0, 418.0, 419.0, 419.0, 420.0, 420.0, 420.0, 420.0, 420.0, 419.0, 419.0, 418.0, 419.0, 419.0, 419.0, 421.0, 422.0, 422.0, 420.0, 420.0, 420.0, 420.0, 419.0, 421.0, 421.0, 422.0, 422.0, 419.0, 419.0, 419.0, 418.0, 419.0, 419.0, 418.0, 419.0, 419.0, 419.0, 418.0, 419.0, 419.0, 421.0, 421.0, 421.0, 420.0, 423.0, 422.0, 419.0, 419.0, 421.0, 420.0, 419.0, 417.0, 417.0, 418.0, 417.0, 418.0, 417.0, 417.0, 418.0, 418.0, 419.0, 421.0, 421.0, 421.0, 421.0, 421.0, 421.0, 421.0, 420.0, 421.0, 420.0, 419.0, 420.0, 419.0, 419.0, 418.0, 419.0, 419.0, 419.0, 420.0, 419.0, 419.0, 419.0, 418.0, 419.0, 419.0, 419.0, 419.0, 419.0, 419.0, 419.0, 419.0, 420.0, 421.0, 421.0, 421.0, 420.0, 420.0, 418.0, 417.0, 417.0, 417.0, 417.0, 419.0, 419.0, 419.0, 419.0, 418.0, 419.0, 420.0, 422.0, 422.0, 421.0, 421.0, 420.0, 421.0, 420.0, 419.0, 419.0, 419.0, 417.0],
