{
  "AcquisitionMatrixPE": 104,
  "AcquisitionNumber": 1,
  "AcquisitionTime": "11:26:13.577500",
  "BandwidthPerPixelPhaseEncode": 43.054,
  "BaseResolution": 104,
  "CoilString": "C:E1_2",
  "ConversionSoftware": "dcm2niix",
  "ConversionSoftwareVersion": "v1.0.20191031",
  "DerivedVendorReportedEchoSpacing": 0.000669999,
  "DeviceSerialNumber": "18932",
  "DwellTime": 2.8e-06,
  "EchoTime": 0.02,
  "EffectiveEchoSpacing": 0.000223333,
  "FlipAngle": 30,
  "ImageComments": "Unaliased_MB2_PE2",
  "ImageOrientationPatientDICOM": [1, 2e-16, 0, -2e-16, 0.987414, -0.158158],
  "ImageType": [
    "ORIGINAL",
    "PRIMARY",
    "M",
    "MB",
    "ND",
    "MOSAIC"
],
  "ImagingFrequency": 297.229,
  "InPlanePhaseEncodingDirectionDICOM": "COL",
  "InstitutionAddress": "Richmond_Street_North_1151_London_409EF2_Ontario_CA_N6A_5B7",
  "InstitutionName": "Robarts_Reserch_Institute",
  "InstitutionalDepartmentName": "Department",
  "MRAcquisitionType": "2D",
  "MagneticFieldStrength": 6.98,
  "Manufacturer": "Siemens",
  "ManufacturersModelName": "Investigational_Device_7T",
  "Modality": "MR",
  "MultibandAccelerationFactor": 2,
  "ParallelReductionFactorInPlane": 3,
  "PartialFourier": 0.875,
  "PatientPosition": "HFS",
  "PercentPhaseFOV": 100,
  "PhaseEncodingDirection": "j-",
  "PhaseEncodingSteps": 91,
  "PhaseResolution": 1,
  "PixelBandwidth": 1717,
  "ProcedureStepDescription": "Diedrichsen_SeqRep4",
  "ProtocolName": "mbep2d_bold_mb2_p3_AP_2iso",
  "PulseSequenceDetails": "%CustomerSeq%_cmrr_mbep2d_bold",
  "ReceiveCoilName": "CFMM_8Tx32Rx",
  "ReconMatrixPE": 104,
  "RefLinesPE": 36,
  "RepetitionTime": 1,
  "ScanOptions": "PFP_FS",
  "ScanningSequence": "EP",
  "SequenceName": "epfid2d1_104",
  "SequenceVariant": "SK_SS",
  "SeriesDescription": "mbep2d_bold_mb2_p3_AP_2iso",
  "SeriesNumber": 17,
  "ShimSetting": [-43, 1883, 307, 342, 11, -164, -204, -86],
  "SliceThickness": 2,
  "SliceTiming": [0, 0.2275, 0.455, 0.685, 0.9125, 0.1375, 0.365, 0.5925, 0.82, 0.045, 0.2725, 0.5025, 0.73, 0.9575, 0.1825, 0.41, 0.6375, 0.8675, 0.09, 0.32, 0.5475, 0.775, 0, 0.2275, 0.455, 0.685, 0.9125, 0.1375, 0.365, 0.5925, 0.82, 0.045, 0.2725, 0.5025, 0.73, 0.9575, 0.1825, 0.41, 0.6375, 0.8675, 0.09, 0.32, 0.5475, 0.775],
  "SoftwareVersions": "syngo_MR_B17",
  "SpacingBetweenSlices": 2,
  "StationName": "MASTER",
  "TaskName": "dsp",
  "TotalReadoutTime": 0.0230033,
  "TxRefAmp": 120,
  "dcmmeta_affine": [
    [-2.0, -4.000000067449534e-16, 6.326322323430879e-17, 110.53752899169922],
    [-4.000000067449534e-16, 1.9748276472091675, -0.3163161277770996, -106.99263763427734],
    [0.0, 0.3163161277770996, 1.9748276472091675, -51.37643814086914],
    [0.0, 0.0, 0.0, 1.0]
],
  "dcmmeta_reorient_transform": [
    [0.0, -1.0, 0.0, 103.0],
    [1.0, 0.0, 0.0, 0.0],
    [0.0, 0.0, 1.0, 0.0],
    [0.0, 0.0, 0.0, 1.0]
],
  "dcmmeta_shape": [104, 104, 44, 330],
  "dcmmeta_slice_dim": 2,
  "dcmmeta_version": 0.6,
  "global": {
    "const": {
      "AcquisitionMatrix": [104, 0, 0, 104],
      "AngioFlag": "N",
      "BitsAllocated": 16,
      "BitsStored": 12,
      "Columns": 728,
      "EchoNumbers": 1,
      "EchoTime": 20.0,
      "EchoTrainLength": 1,
      "FlipAngle": 30.0,
      "HighBit": 11,
      "ImageOrientationPatient": [1.0, 2e-16, 0.0, -2e-16, 0.98741380685208, -0.1581580666229],
      "ImagePositionPatient": [-734.53753042221, -712.5608198278, 79.894756400375],
      "ImageType": [
        "ORIGINAL",
        "PRIMARY",
        "M",
        "MB",
        "ND",
        "MOSAIC"
],
      "ImagedNucleus": "1H",
      "ImagingFrequency": 297.229061,
      "InPlanePhaseEncodingDirection": "COL",
      "MRAcquisitionType": "2D",
      "MagneticFieldStrength": 6.98,
      "Manufacturer": "SIEMENS",
      "ManufacturerModelName": "Investigational_Device_7T",
      "Modality": "MR",
      "NumberOfAverages": 1.0,
      "NumberOfPhaseEncodingSteps": 91,
      "PercentPhaseFieldOfView": 100.0,
      "PercentSampling": 100.0,
      "PerformedProcedureStepStartTime": "104908.406000",
      "PhotometricInterpretation": "MONOCHROME2",
      "PixelBandwidth": 1717.0,
      "PixelRepresentation": 0,
      "PixelSpacing": [2.0, 2.0],
      "ProtocolName": "mbep2d_bold_mb2_p3_AP 2iso",
      "RepetitionTime": 1000.0,
      "Rows": 728,
      "SAR": 0.0,
      "SamplesPerPixel": 1,
      "ScanOptions": [
        "PFP",
        "FS"
],
      "ScanningSequence": "EP",
      "SequenceName": "epfid2d1_104",
      "SequenceVariant": [
        "SK",
        "SS"
],
      "SeriesDescription": "mbep2d_bold_mb2_p3_AP 2iso",
      "SeriesNumber": 17,
      "SeriesTime": "112635.390000",
      "SliceLocation": -33.808056050358,
      "SliceThickness": 2.0,
      "SmallestImagePixelValue": 0,
      "SoftwareVersions": "syngo MR B17",
      "SpacingBetweenSlices": 1.999999996632,
      "SpecificCharacterSet": "ISO_IR 100",
      "StudyID": "1",
      "StudyTime": "104908.343000",
      "TransmitCoilName": "CFMM_8Tx32Rx",
      "VariableFlipAngleFlag": "N",
      "WindowCenterWidthExplanation": "Algo1",
      "dBdt": 0.0},
    "slices": {}
  },
  "time": {
    "samples": {
      "AcquisitionNumber": [1, 2, 3, 4, 5, 6, 7, 8, 9, 10, 11, 12, 13, 14, 15, 16, 17, 18, 19, 20, 21, 22, 23, 24, 25, 26, 27, 28, 29, 30, 31, 32, 33, 34, 35, 36, 37, 38, 39, 40, 41, 42, 43, 44, 45, 46, 47, 48, 49, 50, 51, 52, 53, 54, 55, 56, 57, 58, 59, 60, 61, 62, 63, 64, 65, 66, 67, 68, 69, 70, 71, 72, 73, 74, 75, 76, 77, 78, 79, 80, 81, 82, 83, 84, 85, 86, 87, 88, 89, 90, 91, 92, 93, 94, 95, 96, 97, 98, 99, 100, 101, 102, 103, 104, 105, 106, 107, 108, 109, 110, 111, 112, 113, 114, 115, 116, 117, 118, 119, 120, 121, 122, 123, 124, 125, 126, 127, 128, 129, 130, 131, 132, 133, 134, 135, 136, 137, 138, 139, 140, 141, 142, 143, 144, 145, 146, 147, 148, 149, 150, 151, 152, 153, 154, 155, 156, 157, 158, 159, 160, 161, 162, 163, 164, 165, 166, 167, 168, 169, 170, 171, 172, 173, 174, 175, 176, 177, 178, 179, 180, 181, 182, 183, 184, 185, 186, 187, 188, 189, 190, 191, 192, 193, 194, 195, 196, 197, 198, 199, 200, 201, 202, 203, 204, 205, 206, 207, 208, 209, 210, 211, 212, 213, 214, 215, 216, 217, 218, 219, 220, 221, 222, 223, 224, 225, 226, 227, 228, 229, 230, 231, 232, 233, 234, 235, 236, 237, 238, 239, 240, 241, 242, 243, 244, 245, 246, 247, 248, 249, 250, 251, 252, 253, 254, 255, 256, 257, 258, 259, 260, 261, 262, 263, 264, 265, 266, 267, 268, 269, 270, 271, 272, 273, 274, 275, 276, 277, 278, 279, 280, 281, 282, 283, 284, 285, 286, 287, 288, 289, 290, 291, 292, 293, 294, 295, 296, 297, 298, 299, 300, 301, 302, 303, 304, 305, 306, 307, 308, 309, 310, 311, 312, 313, 314, 315, 316, 317, 318, 319, 320, 321, 322, 323, 324, 325, 326, 327, 328, 329, 330],
      "AcquisitionTime": ["112613.577500", "112614.582500", "112615.585000", "112616.590000", "112617.592500", "112618.597500", "112619.602500", "112620.605000", "112621.610000", "112622.612500", "112623.617500", "112624.622500", "112625.625000", "112626.630000", "112627.632500", "112628.637500", "112629.642500", "112630.645000", "112631.650000", "112632.652500", "112633.657500", "112634.662500", "112635.665000", "112636.670000", "112637.675000", "112638.677500", "112639.682500", "112640.685000", "112641.690000", "112642.695000", "112643.697500", "112644.702500", "112645.705000", "112646.710000", "112647.715000", "112648.717500", "112649.722500", "112650.725000", "112651.730000", "112652.735000", "112653.737500", "112654.742500", "112655.745000", "112656.750000", "112657.755000", "112658.757500", "112659.762500", "112700.765000", "112701.770000", "112702.775000", "112703.777500", "112704.782500", "112705.785000", "112706.790000", "112707.795000", "112708.797500", "112709.802500", "112710.807500", "112711.810000", "112712.815000", "112713.817500", "112714.822500", "112715.827500", "112716.830000", "112717.835000", "112718.837500", "112719.842500", "112720.847500", "112721.850000", "112722.855000", "112723.857500", "112724.862500", "112725.867500", "112726.870000", "112727.875000", "112728.877500", "112729.882500", "112730.887500", "112731.890000", "112732.895000", "112733.897500", "112734.902500", "112735.907500", "112736.910000", "112737.915000", "112738.920000", "112739.922500", "112740.927500", "112741.930000", "112742.935000", "112743.940000", "112744.942500", "112745.947500", "112746.950000", "112747.955000", "112748.960000", "112749.962500", "112750.967500", "112751.970000", "112752.975000", "112753.980000", "112754.982500", "112755.987500", "112756.990000", "112757.995000", "112759.000000", "112800.002500", "112801.007500", "112802.010000", "112803.015000", "112804.020000", "112805.022500", "112806.027500", "112807.030000", "112808.035000", "112809.040000", "112810.042500", "112811.047500", "112812.052500", "112813.055000", "112814.060000", "112815.062500", "112816.067500", "112817.072500", "112818.075000", "112819.080000", "112820.082500", "112821.087500", "112822.092500", "112823.095000", "112824.100000", "112825.102500", "112826.107500", "112827.112500", "112828.115000", "112829.120000", "112830.122500", "112831.127500", "112832.132500", "112833.135000", "112834.140000", "112835.142500", "112836.147500", "112837.152500", "112838.155000", "112839.160000", "112840.162500", "112841.167500", "112842.172500", "112843.175000", "112844.180000", "112845.185000", "112846.187500", "112847.192500", "112848.195000", "112849.200000", "112850.205000", "112851.207500", "112852.212500", "112853.215000", "112854.220000", "112855.225000", "112856.227500", "112857.232500", "112858.235000", "112859.240000", "112900.245000", "112901.247500", "112902.252500", "112903.255000", "112904.260000", "112905.265000", "112906.267500", "112907.272500", "112908.275000", "112909.280000", "112910.285000", "112911.287500", "112912.292500", "112913.297500", "112914.300000", "112915.305000", "112916.307500", "112917.312500", "112918.317500", "112919.320000", "112920.325000", "112921.327500", "112922.332500", "112923.337500", "112924.340000", "112925.345000", "112926.347500", "112927.352500", "112928.357500", "112929.360000", "112930.365000", "112931.367500", "112932.372500", "112933.377500", "112934.380000", "112935.385000", "112936.387500", "112937.392500", "112938.397500", "112939.400000", "112940.405000", "112941.407500", "112942.412500", "112943.417500", "112944.420000", "112945.425000", "112946.430000", "112947.432500", "112948.437500", "112949.440000", "112950.445000", "112951.450000", "112952.452500", "112953.457500", "112954.460000", "112955.465000", "112956.470000", "112957.472500", "112958.477500", "112959.480000", "113000.485000", "113001.490000", "113002.492500", "113003.497500", "113004.500000", "113005.505000", "113006.510000", "113007.512500", "113008.517500", "113009.520000", "113010.525000", "113011.530000", "113012.532500", "113013.537500", "113014.540000", "113015.545000", "113016.550000", "113017.552500", "113018.557500", "113019.562500", "113020.565000", "113021.570000", "113022.572500", "113023.577500", "113024.582500", "113025.585000", "113026.590000", "113027.592500", "113028.597500", "113029.602500", "113030.605000", "113031.610000", "113032.612500", "113033.617500", "113034.622500", "113035.625000", "113036.630000", "113037.632500", "113038.637500", "113039.642500", "113040.645000", "113041.650000", "113042.652500", "113043.657500", "113044.662500", "113045.665000", "113046.670000", "113047.675000", "113048.677500", "113049.682500", "113050.685000", "113051.690000", "113052.695000", "113053.697500", "113054.702500", "113055.705000", "113056.710000", "113057.715000", "113058.717500", "113059.722500", "113100.725000", "113101.730000", "113102.735000", "113103.737500", "113104.742500", "113105.745000", "113106.750000", "113107.755000", "113108.757500", "113109.762500", "113110.765000", "113111.770000", "113112.775000", "113113.777500", "113114.782500", "113115.785000", "113116.790000", "113117.795000", "113118.797500", "113119.802500", "113120.807500", "113121.810000", "113122.815000", "113123.817500", "113124.822500", "113125.827500", "113126.830000", "113127.835000", "113128.837500", "113129.842500", "113130.847500", "113131.850000", "113132.855000", "113133.857500", "113134.862500", "113135.867500", "113136.870000", "113137.875000", "113138.877500", "113139.882500", "113140.887500", "113141.890000", "113142.895000", "113143.897500"],
      "ContentTime": ["112635.390000", "112635.390000", "112635.390000", "112635.406000", "112635.406000", "112635.406000", "112635.406000", "112635.406000", "112635.406000", "112635.406000", "112635.421000", "112635.421000", "112635.421000", "112635.421000", "112635.421000", "112635.421000", "112635.421000", "112635.437000", "112635.437000", "112635.437000", "112655.343000", "112655.343000", "112655.359000", "112655.359000", "112655.359000", "112655.359000", "112655.359000", "112655.359000", "112655.359000", "112655.375000", "112655.375000", "112655.375000", "112655.375000", "112655.375000", "112655.375000", "112655.375000", "112655.390000", "112655.390000", "112655.390000", "112655.390000", "112715.343000", "112715.359000", "112715.359000", "112715.359000", "112715.359000", "112715.359000", "112715.359000", "112715.375000", "112715.375000", "112715.375000", "112715.375000", "112715.375000", "112715.375000", "112715.375000", "112715.390000", "112715.390000", "112715.390000", "112715.390000", "112715.390000", "112715.390000", "112735.343000", "112735.343000", "112735.359000", "112735.359000", "112735.375000", "112735.375000", "112735.375000", "112735.390000", "112735.390000", "112735.390000", "112735.390000", "112735.390000", "112735.390000", "112735.406000", "112735.406000", "112735.406000", "112735.406000", "112735.406000", "112735.406000", "112735.421000", "112755.343000", "112755.359000", "112755.359000", "112755.359000", "112755.359000", "112755.359000", "112755.359000", "112755.359000", "112755.375000", "112755.375000", "112755.375000", "112755.375000", "112755.375000", "112755.375000", "112755.375000", "112755.390000", "112755.390000", "112755.390000", "112755.390000", "112755.390000", "112815.343000", "112815.343000", "112815.359000", "112815.359000", "112815.359000", "112815.359000", "112815.359000", "112815.359000", "112815.375000", "112815.375000", "112815.375000", "112815.375000", "112815.375000", "112815.375000", "112815.375000", "112815.390000", "112815.390000", "112815.390000", "112815.390000", "112815.406000", "112835.359000", "112835.359000", "112835.359000", "112835.375000", "112835.375000", "112835.375000", "112835.375000", "112835.375000", "112835.375000", "112835.375000", "112835.390000", "112835.390000", "112835.390000", "112835.390000", "112835.390000", "112835.390000", "112835.390000", "112835.406000", "112835.406000", "112835.406000", "112855.343000", "112855.343000", "112855.359000", "112855.359000", "112855.359000", "112855.359000", "112855.359000", "112855.375000", "112855.375000", "112855.375000", "112855.375000", "112855.375000", "112855.375000", "112855.375000", "112855.390000", "112855.390000", "112855.390000", "112855.390000", "112855.390000", "112855.390000", "112915.343000", "112915.343000", "112915.359000", "112915.359000", "112915.359000", "112915.359000", "112915.359000", "112915.375000", "112915.375000", "112915.375000", "112915.390000", "112915.390000", "112915.390000", "112915.390000", "112915.406000", "112915.406000", "112915.406000", "112915.406000", "112915.406000", "112915.406000", "112935.343000", "112935.343000", "112935.359000", "112935.359000", "112935.359000", "112935.359000", "112935.359000", "112935.375000", "112935.375000", "112935.375000", "112935.390000", "112935.390000", "112935.390000", "112935.390000", "112935.390000", "112935.406000", "112935.406000", "112935.406000", "112935.406000", "112935.421000", "112955.343000", "112955.359000", "112955.359000", "112955.375000", "112955.375000", "112955.375000", "112955.375000", "112955.390000", "112955.390000", "112955.390000", "112955.390000", "112955.390000", "112955.406000", "112955.406000", "112955.406000", "112955.406000", "112955.406000", "112955.406000", "112955.406000", "112955.421000", "113015.359000", "113015.359000", "113015.359000", "113015.359000", "113015.375000", "113015.375000", "113015.375000", "113015.375000", "113015.390000", "113015.390000", "113015.390000", "113015.390000", "113015.390000", "113015.390000", "113015.390000", "113015.406000", "113015.406000", "113015.406000", "113015.406000", "113015.406000", "113035.343000", "113035.343000", "113035.359000", "113035.359000", "113035.359000", "113035.359000", "113035.359000", "113035.375000", "113035.375000", "113035.375000", "113035.375000", "113035.375000", "113035.375000", "113035.390000", "113035.390000", "113035.390000", "113035.390000", "113035.390000", "113035.390000", "113035.390000", "113115.343000", "113115.359000", "113115.359000", "113115.359000", "113115.359000", "113115.359000", "113115.359000", "113115.359000", "113115.359000", "113115.375000", "113115.375000", "113115.375000", "113115.375000", "113115.375000", "113115.375000", "113115.375000", "113115.390000", "113115.390000", "113115.390000", "113115.390000", "113115.390000", "113115.406000", "113115.406000", "113115.406000", "113115.406000", "113115.406000", "113115.406000", "113115.421000", "113115.421000", "113115.421000", "113115.421000", "113115.421000", "113115.421000", "113115.421000", "113115.437000", "113115.437000", "113115.437000", "113115.437000", "113115.437000", "113115.437000", "113135.343000", "113135.343000", "113135.359000", "113135.375000", "113135.375000", "113135.375000", "113135.375000", "113135.390000", "113135.390000", "113135.390000", "113135.390000", "113135.390000", "113135.390000", "113135.406000", "113135.406000", "113135.406000", "113135.406000", "113135.406000", "113135.406000", "113135.421000", "113149.671000", "113149.671000", "113149.671000", "113149.687000", "113149.687000", "113149.687000", "113149.687000", "113149.687000", "113149.703000", "113149.703000"],
      "InstanceCreationTime": ["112635.390000", "112635.390000", "112635.390000", "112635.406000", "112635.406000", "112635.406000", "112635.406000", "112635.406000", "112635.406000", "112635.406000", "112635.421000", "112635.421000", "112635.421000", "112635.421000", "112635.421000", "112635.421000", "112635.421000", "112635.437000", "112635.437000", "112635.437000", "112655.343000", "112655.343000", "112655.359000", "112655.359000", "112655.359000", "112655.359000", "112655.359000", "112655.359000", "112655.359000", "112655.375000", "112655.375000", "112655.375000", "112655.375000", "112655.375000", "112655.375000", "112655.375000", "112655.390000", "112655.390000", "112655.390000", "112655.390000", "112715.343000", "112715.359000", "112715.359000", "112715.359000", "112715.359000", "112715.359000", "112715.359000", "112715.375000", "112715.375000", "112715.375000", "112715.375000", "112715.375000", "112715.375000", "112715.375000", "112715.390000", "112715.390000", "112715.390000", "112715.390000", "112715.390000", "112715.390000", "112735.343000", "112735.343000", "112735.359000", "112735.359000", "112735.375000", "112735.375000", "112735.375000", "112735.390000", "112735.390000", "112735.390000", "112735.390000", "112735.390000", "112735.390000", "112735.406000", "112735.406000", "112735.406000", "112735.406000", "112735.406000", "112735.406000", "112735.421000", "112755.343000", "112755.359000", "112755.359000", "112755.359000", "112755.359000", "112755.359000", "112755.359000", "112755.359000", "112755.375000", "112755.375000", "112755.375000", "112755.375000", "112755.375000", "112755.375000", "112755.375000", "112755.390000", "112755.390000", "112755.390000", "112755.390000", "112755.390000", "112815.343000", "112815.343000", "112815.359000", "112815.359000", "112815.359000", "112815.359000", "112815.359000", "112815.359000", "112815.375000", "112815.375000", "112815.375000", "112815.375000", "112815.375000", "112815.375000", "112815.375000", "112815.390000", "112815.390000", "112815.390000", "112815.390000", "112815.406000", "112835.359000", "112835.359000", "112835.359000", "112835.375000", "112835.375000", "112835.375000", "112835.375000", "112835.375000", "112835.375000", "112835.375000", "112835.390000", "112835.390000", "112835.390000", "112835.390000", "112835.390000", "112835.390000", "112835.390000", "112835.406000", "112835.406000", "112835.406000", "112855.343000", "112855.343000", "112855.359000", "112855.359000", "112855.359000", "112855.359000", "112855.359000", "112855.375000", "112855.375000", "112855.375000", "112855.375000", "112855.375000", "112855.375000", "112855.375000", "112855.390000", "112855.390000", "112855.390000", "112855.390000", "112855.390000", "112855.390000", "112915.343000", "112915.343000", "112915.359000", "112915.359000", "112915.359000", "112915.359000", "112915.359000", "112915.375000", "112915.375000", "112915.375000", "112915.390000", "112915.390000", "112915.390000", "112915.390000", "112915.406000", "112915.406000", "112915.406000", "112915.406000", "112915.406000", "112915.406000", "112935.343000", "112935.343000", "112935.359000", "112935.359000", "112935.359000", "112935.359000", "112935.359000", "112935.375000", "112935.375000", "112935.375000", "112935.390000", "112935.390000", "112935.390000", "112935.390000", "112935.390000", "112935.406000", "112935.406000", "112935.406000", "112935.406000", "112935.421000", "112955.343000", "112955.359000", "112955.359000", "112955.375000", "112955.375000", "112955.375000", "112955.375000", "112955.390000", "112955.390000", "112955.390000", "112955.390000", "112955.390000", "112955.406000", "112955.406000", "112955.406000", "112955.406000", "112955.406000", "112955.406000", "112955.406000", "112955.421000", "113015.359000", "113015.359000", "113015.359000", "113015.359000", "113015.375000", "113015.375000", "113015.375000", "113015.375000", "113015.390000", "113015.390000", "113015.390000", "113015.390000", "113015.390000", "113015.390000", "113015.390000", "113015.406000", "113015.406000", "113015.406000", "113015.406000", "113015.406000", "113035.343000", "113035.343000", "113035.359000", "113035.359000", "113035.359000", "113035.359000", "113035.359000", "113035.375000", "113035.375000", "113035.375000", "113035.375000", "113035.375000", "113035.375000", "113035.390000", "113035.390000", "113035.390000", "113035.390000", "113035.390000", "113035.390000", "113035.390000", "113115.343000", "113115.359000", "113115.359000", "113115.359000", "113115.359000", "113115.359000", "113115.359000", "113115.359000", "113115.359000", "113115.375000", "113115.375000", "113115.375000", "113115.375000", "113115.375000", "113115.375000", "113115.375000", "113115.390000", "113115.390000", "113115.390000", "113115.390000", "113115.390000", "113115.406000", "113115.406000", "113115.406000", "113115.406000", "113115.406000", "113115.406000", "113115.421000", "113115.421000", "113115.421000", "113115.421000", "113115.421000", "113115.421000", "113115.421000", "113115.437000", "113115.437000", "113115.437000", "113115.437000", "113115.437000", "113115.437000", "113135.343000", "113135.343000", "113135.359000", "113135.375000", "113135.375000", "113135.375000", "113135.375000", "113135.390000", "113135.390000", "113135.390000", "113135.390000", "113135.390000", "113135.390000", "113135.406000", "113135.406000", "113135.406000", "113135.406000", "113135.406000", "113135.406000", "113135.421000", "113149.671000", "113149.671000", "113149.671000", "113149.687000", "113149.687000", "113149.687000", "113149.687000", "113149.687000", "113149.703000", "113149.703000"],
      "InstanceNumber": [1, 2, 3, 4, 5, 6, 7, 8, 9, 10, 11, 12, 13, 14, 15, 16, 17, 18, 19, 20, 21, 22, 23, 24, 25, 26, 27, 28, 29, 30, 31, 32, 33, 34, 35, 36, 37, 38, 39, 40, 41, 42, 43, 44, 45, 46, 47, 48, 49, 50, 51, 52, 53, 54, 55, 56, 57, 58, 59, 60, 61, 62, 63, 64, 65, 66, 67, 68, 69, 70, 71, 72, 73, 74, 75, 76, 77, 78, 79, 80, 81, 82, 83, 84, 85, 86, 87, 88, 89, 90, 91, 92, 93, 94, 95, 96, 97, 98, 99, 100, 101, 102, 103, 104, 105, 106, 107, 108, 109, 110, 111, 112, 113, 114, 115, 116, 117, 118, 119, 120, 121, 122, 123, 124, 125, 126, 127, 128, 129, 130, 131, 132, 133, 134, 135, 136, 137, 138, 139, 140, 141, 142, 143, 144, 145, 146, 147, 148, 149, 150, 151, 152, 153, 154, 155, 156, 157, 158, 159, 160, 161, 162, 163, 164, 165, 166, 167, 168, 169, 170, 171, 172, 173, 174, 175, 176, 177, 178, 179, 180, 181, 182, 183, 184, 185, 186, 187, 188, 189, 190, 191, 192, 193, 194, 195, 196, 197, 198, 199, 200, 201, 202, 203, 204, 205, 206, 207, 208, 209, 210, 211, 212, 213, 214, 215, 216, 217, 218, 219, 220, 221, 222, 223, 224, 225, 226, 227, 228, 229, 230, 231, 232, 233, 234, 235, 236, 237, 238, 239, 240, 241, 242, 243, 244, 245, 246, 247, 248, 249, 250, 251, 252, 253, 254, 255, 256, 257, 258, 259, 260, 261, 262, 263, 264, 265, 266, 267, 268, 269, 270, 271, 272, 273, 274, 275, 276, 277, 278, 279, 280, 281, 282, 283, 284, 285, 286, 287, 288, 289, 290, 291, 292, 293, 294, 295, 296, 297, 298, 299, 300, 301, 302, 303, 304, 305, 306, 307, 308, 309, 310, 311, 312, 313, 314, 315, 316, 317, 318, 319, 320, 321, 322, 323, 324, 325, 326, 327, 328, 329, 330],
      "LargestImagePixelValue": [1717, 1717, 1698, 1680, 1723, 1729, 1684, 1648, 1659, 1742, 1674, 1660, 1691, 1715, 1709, 1627, 1615, 1630, 1683, 1663, 1690, 1670, 1655, 1686, 1668, 1627, 1600, 1650, 1662, 1714, 1683, 1690, 1711, 1673, 1710, 1664, 1676, 1679, 1715, 1698, 1682, 1669, 1710, 1718, 1719, 1672, 1718, 1713, 1698, 1714, 1724, 1693, 1721, 1729, 1799, 1724, 1710, 1700, 1711, 1743, 1734, 1737, 1683, 1666, 1722, 1724, 1696, 1699, 1701, 1764, 1725, 1718, 1751, 1699, 1730, 1761, 1718, 1714, 1746, 1709, 1714, 1623, 1623, 1657, 1680, 1700, 1717, 1699, 1715, 1714, 1669, 1641, 1655, 1688, 1661, 1655, 1676, 1676, 1670, 1687, 1687, 1697, 1657, 1689, 1652, 1668, 1721, 1709, 1755, 1767, 1835, 1766, 1706, 1702, 1718, 1635, 1622, 1619, 1700, 1701, 1715, 1705, 1718, 1715, 1731, 1767, 1713, 1677, 1688, 1703, 1713, 1648, 1643, 1647, 1696, 1708, 1763, 1772, 1718, 1759, 1822, 1711, 1627, 1633, 1675, 1649, 1629, 1606, 1640, 1675, 1639, 1688, 1641, 1604, 1639, 1640, 1702, 1650, 1641, 1675, 1627, 1649, 1679, 1676, 1656, 1634, 1683, 1646, 1658, 1693, 1724, 1792, 1737, 1754, 1700, 1639, 1604, 1602, 1623, 1654, 1715, 1798, 1817, 1804, 1750, 1802, 1819, 1761, 1743, 1645, 1645, 1604, 1664, 1642, 1701, 1745, 1672, 1668, 1634, 1619, 1608, 1638, 1652, 1798, 1844, 1828, 1784, 1792, 1882, 1822, 1782, 1715, 1710, 1697, 1685, 1707, 1692, 1671, 1679, 1733, 1748, 1709, 1734, 1726, 1677, 1743, 1791, 1787, 1746, 1716, 1692, 1625, 1672, 1668, 1708, 1670, 1689, 1711, 1823, 1809, 1750, 1770, 1752, 1781, 1763, 1773, 1757, 1749, 1709, 1692, 1664, 1666, 1678, 1738, 1765, 1763, 1725, 1672, 1714, 1657, 1735, 1811, 1778, 1803, 1772, 1813, 1811, 1685, 1788, 1721, 1713, 1718, 1709, 1744, 1751, 1779, 1699, 1738, 1670, 1667, 1765, 1736, 1744, 1752, 1701, 1749, 1756, 1746, 1807, 1817, 1789, 1763, 1756, 1748, 1777, 1734, 1797, 1827, 1810, 1833, 1821, 1765, 1689, 1727, 1739, 1709, 1671, 1690, 1781, 1842, 1840, 1763, 1759, 1750, 1748, 1760, 1729, 1749, 1713, 1788, 1813, 1783, 1755, 1766, 1730, 1765, 1824, 1792, 1830, 1757],
      "WindowCenter": [352.0, 352.0, 352.0, 351.0, 351.0, 351.0, 351.0, 351.0, 352.0, 352.0, 352.0, 352.0, 352.0, 353.0, 352.0, 353.0, 353.0, 353.0, 353.0, 353.0, 352.0, 352.0, 353.0, 352.0, 351.0, 351.0, 352.0, 352.0, 353.0, 352.0, 351.0, 351.0, 351.0, 351.0, 351.0, 352.0, 354.0, 355.0, 355.0, 355.0, 353.0, 353.0, 352.0, 351.0, 351.0, 351.0, 352.0, 352.0, 351.0, 352.0, 352.0, 352.0, 354.0, 354.0, 354.0, 353.0, 353.0, 352.0, 352.0, 352.0, 352.0, 352.0, 352.0, 352.0, 352.0, 351.0, 351.0, 351.0, 352.0, 354.0, 354.0, 354.0, 355.0, 355.0, 355.0, 356.0, 355.0, 354.0, 352.0, 352.0, 351.0, 351.0, 351.0, 352.0, 353.0, 354.0, 354.0, 353.0, 353.0, 353.0, 352.0, 352.0, 352.0, 352.0, 351.0, 352.0, 353.0, 352.0, 352.0, 353.0, 353.0, 352.0, 352.0, 353.0, 354.0, 354.0, 355.0, 356.0, 355.0, 355.0, 355.0, 355.0, 354.0, 353.0, 352.0, 352.0, 353.0, 353.0, 354.0, 354.0, 354.0, 354.0, 355.0, 355.0, 355.0, 355.0, 355.0, 353.0, 352.0, 351.0, 351.0, 351.0, 351.0, 352.0, 354.0, 355.0, 355.0, 355.0, 355.0, 355.0, 355.0, 355.0, 352.0, 351.0, 352.0, 351.0, 351.0, 351.0, 352.0, 353.0, 354.0, 354.0, 353.0, 352.0, 351.0, 352.0, 352.0, 352.0, 352.0, 353.0, 352.0, 352.0, 351.0, 351.0, 351.0, 351.0, 351.0, 352.0, 353.0, 354.0, 354.0, 354.0, 353.0, 352.0, 351.0, 351.0, 351.0, 351.0, 352.0, 353.0, 353.0, 353.0, 354.0, 355.0, 354.0, 354.0, 355.0, 354.0, 353.0, 351.0, 351.0, 352.0, 353.0, 353.0, 355.0, 355.0, 354.0, 353.0, 353.0, 352.0, 351.0, 352.0, 354.0, 355.0, 355.0, 356.0, 355.0, 355.0, 355.0, 354.0, 352.0, 351.0, 350.0, 350.0, 350.0, 352.0, 353.0, 354.0, 354.0, 354.0, 354.0, 353.0, 353.0, 354.0, 355.0, 355.0, 355.0, 354.0, 353.0, 351.0, 351.0, 352.0, 352.0, 352.0, 354.0, 355.0, 354.0, 354.0, 354.0, 354.0, 353.0, 352.0, 352.0, 353.0, 352.0, 352.0, 352.0, 353.0, 352.0, 353.0, 353.0, 353.0, 355.0, 355.0, 355.0, 354.0, 354.0, 353.0, 354.0, 354.0, 355.0, 356.0, 356.0, 355.0, 355.0, 355.0, 355.0, 353.0, 353.0, 353.0, 353.0, 353.0, 354.0, 354.0, 354.0, 354.0, 354.0, 354.0, 354.0, 355.0, 355.0, 356.0, 356.0, 355.0, 355.0, 355.0, 354.0, 355.0, 355.0, 355.0, 355.0, 354.0, 355.0, 355.0, 355.0, 355.0, 357.0, 357.0, 355.0, 354.0, 353.0, 353.0, 352.0, 351.0, 351.0, 352.0, 352.0, 354.0, 355.0, 355.0, 355.0, 354.0, 353.0, 353.0, 353.0, 353.0, 354.0, 354.0, 355.0, 355.0, 355.0, 353.0, 352.0, 351.0, 352.0, 352.0, 354.0, 355.0, 355.0, 354.0],
