{
  "AcquisitionMatrixPE": 104,
  "AcquisitionNumber": 1,
  "AcquisitionTime": "11:19:36.887500",
  "BandwidthPerPixelPhaseEncode": 43.054,
  "BaseResolution": 104,
  "CoilString": "C:E1_2",
  "ConversionSoftware": "dcm2niix",
  "ConversionSoftwareVersion": "v1.0.20191031",
  "DerivedVendorReportedEchoSpacing": 0.000669999,
  "DeviceSerialNumber": "18932",
  "DwellTime": 2.8e-06,
  "EchoTime": 0.02,
  "EffectiveEchoSpacing": 0.000223333,
  "FlipAngle": 30,
  "ImageComments": "Unaliased_MB2_PE2",
  "ImageOrientationPatientDICOM": [1, 2e-16, 0, -2e-16, 0.987414, -0.158158],
  "ImageType": [
    "ORIGINAL",
    "PRIMARY",
    "M",
    "MB",
    "ND",
    "MOSAIC"
],
  "ImagingFrequency": 297.229,
  "InPlanePhaseEncodingDirectionDICOM": "COL",
  "InstitutionAddress": "Richmond_Street_North_1151_London_409EF2_Ontario_CA_N6A_5B7",
  "InstitutionName": "Robarts_Reserch_Institute",
  "InstitutionalDepartmentName": "Department",
  "MRAcquisitionType": "2D",
  "MagneticFieldStrength": 6.98,
  "Manufacturer": "Siemens",
  "ManufacturersModelName": "Investigational_Device_7T",
  "Modality": "MR",
  "MultibandAccelerationFactor": 2,
  "ParallelReductionFactorInPlane": 3,
  "PartialFourier": 0.875,
  "PatientPosition": "HFS",
  "PercentPhaseFOV": 100,
  "PhaseEncodingDirection": "j-",
  "PhaseEncodingSteps": 91,
  "PhaseResolution": 1,
  "PixelBandwidth": 1717,
  "ProcedureStepDescription": "Diedrichsen_SeqRep4",
  "ProtocolName": "mbep2d_bold_mb2_p3_AP_2iso",
  "PulseSequenceDetails": "%CustomerSeq%_cmrr_mbep2d_bold",
  "ReceiveCoilName": "CFMM_8Tx32Rx",
  "ReconMatrixPE": 104,
  "RefLinesPE": 36,
  "RepetitionTime": 1,
  "ScanOptions": "PFP_FS",
  "ScanningSequence": "EP",
  "SequenceName": "epfid2d1_104",
  "SequenceVariant": "SK_SS",
  "SeriesDescription": "mbep2d_bold_mb2_p3_AP_2iso",
  "SeriesNumber": 15,
  "ShimSetting": [-43, 1883, 307, 342, 11, -164, -204, -86],
  "SliceThickness": 2,
  "SliceTiming": [0, 0.23, 0.4575, 0.685, 0.9125, 0.1375, 0.365, 0.595, 0.8225, 0.0475, 0.275, 0.5025, 0.73, 0.96, 0.1825, 0.4125, 0.64, 0.8675, 0.0925, 0.32, 0.5475, 0.7775, 0, 0.23, 0.4575, 0.685, 0.9125, 0.1375, 0.365, 0.595, 0.8225, 0.0475, 0.275, 0.5025, 0.73, 0.96, 0.1825, 0.4125, 0.64, 0.8675, 0.0925, 0.32, 0.5475, 0.7775],
  "SoftwareVersions": "syngo_MR_B17",
  "SpacingBetweenSlices": 2,
  "StationName": "MASTER",
  "TaskName": "dsp",
  "TotalReadoutTime": 0.0230033,
  "TxRefAmp": 120,
  "dcmmeta_affine": [
    [-2.0, -4.000000067449534e-16, 6.326322323430879e-17, 110.53752899169922],
    [-4.000000067449534e-16, 1.9748276472091675, -0.3163161277770996, -106.99263763427734],
    [0.0, 0.3163161277770996, 1.9748276472091675, -51.37643814086914],
    [0.0, 0.0, 0.0, 1.0]
],
  "dcmmeta_reorient_transform": [
    [0.0, -1.0, 0.0, 103.0],
    [1.0, 0.0, 0.0, 0.0],
    [0.0, 0.0, 1.0, 0.0],
    [0.0, 0.0, 0.0, 1.0]
],
  "dcmmeta_shape": [104, 104, 44, 330],
  "dcmmeta_slice_dim": 2,
  "dcmmeta_version": 0.6,
  "global": {
    "const": {
      "AcquisitionMatrix": [104, 0, 0, 104],
      "AngioFlag": "N",
      "BitsAllocated": 16,
      "BitsStored": 12,
      "Columns": 728,
      "EchoNumbers": 1,
      "EchoTime": 20.0,
      "EchoTrainLength": 1,
      "FlipAngle": 30.0,
      "HighBit": 11,
      "ImageOrientationPatient": [1.0, 2e-16, 0.0, -2e-16, 0.98741380685208, -0.1581580666229],
      "ImagePositionPatient": [-734.53753042221, -712.5608198278, 79.894756400375],
      "ImageType": [
        "ORIGINAL",
        "PRIMARY",
        "M",
        "MB",
        "ND",
        "MOSAIC"
],
      "ImagedNucleus": "1H",
      "ImagingFrequency": 297.229052,
      "InPlanePhaseEncodingDirection": "COL",
      "MRAcquisitionType": "2D",
      "MagneticFieldStrength": 6.98,
      "Manufacturer": "SIEMENS",
      "ManufacturerModelName": "Investigational_Device_7T",
      "Modality": "MR",
      "NumberOfAverages": 1.0,
      "NumberOfPhaseEncodingSteps": 91,
      "PercentPhaseFieldOfView": 100.0,
      "PercentSampling": 100.0,
      "PerformedProcedureStepStartTime": "104908.406000",
      "PhotometricInterpretation": "MONOCHROME2",
      "PixelBandwidth": 1717.0,
      "PixelRepresentation": 0,
      "PixelSpacing": [2.0, 2.0],
      "ProtocolName": "mbep2d_bold_mb2_p3_AP 2iso",
      "RepetitionTime": 1000.0,
      "Rows": 728,
      "SAR": 0.0,
      "SamplesPerPixel": 1,
      "ScanOptions": [
        "PFP",
        "FS"
],
      "ScanningSequence": "EP",
      "SequenceName": "epfid2d1_104",
      "SequenceVariant": [
        "SK",
        "SS"
],
      "SeriesDescription": "mbep2d_bold_mb2_p3_AP 2iso",
      "SeriesNumber": 15,
      "SeriesTime": "112016.140000",
      "SliceLocation": -33.808056050358,
      "SliceThickness": 2.0,
      "SmallestImagePixelValue": 0,
      "SoftwareVersions": "syngo MR B17",
      "SpacingBetweenSlices": 1.999999996632,
      "SpecificCharacterSet": "ISO_IR 100",
      "StudyID": "1",
      "StudyTime": "104908.343000",
      "TransmitCoilName": "CFMM_8Tx32Rx",
      "VariableFlipAngleFlag": "N",
      "WindowCenterWidthExplanation": "Algo1",
      "dBdt": 0.0},
    "slices": {}
  },
  "time": {
    "samples": {
      "AcquisitionNumber": [1, 2, 3, 4, 5, 6, 7, 8, 9, 10, 11, 12, 13, 14, 15, 16, 17, 18, 19, 20, 21, 22, 23, 24, 25, 26, 27, 28, 29, 30, 31, 32, 33, 34, 35, 36, 37, 38, 39, 40, 41, 42, 43, 44, 45, 46, 47, 48, 49, 50, 51, 52, 53, 54, 55, 56, 57, 58, 59, 60, 61, 62, 63, 64, 65, 66, 67, 68, 69, 70, 71, 72, 73, 74, 75, 76, 77, 78, 79, 80, 81, 82, 83, 84, 85, 86, 87, 88, 89, 90, 91, 92, 93, 94, 95, 96, 97, 98, 99, 100, 101, 102, 103, 104, 105, 106, 107, 108, 109, 110, 111, 112, 113, 114, 115, 116, 117, 118, 119, 120, 121, 122, 123, 124, 125, 126, 127, 128, 129, 130, 131, 132, 133, 134, 135, 136, 137, 138, 139, 140, 141, 142, 143, 144, 145, 146, 147, 148, 149, 150, 151, 152, 153, 154, 155, 156, 157, 158, 159, 160, 161, 162, 163, 164, 165, 166, 167, 168, 169, 170, 171, 172, 173, 174, 175, 176, 177, 178, 179, 180, 181, 182, 183, 184, 185, 186, 187, 188, 189, 190, 191, 192, 193, 194, 195, 196, 197, 198, 199, 200, 201, 202, 203, 204, 205, 206, 207, 208, 209, 210, 211, 212, 213, 214, 215, 216, 217, 218, 219, 220, 221, 222, 223, 224, 225, 226, 227, 228, 229, 230, 231, 232, 233, 234, 235, 236, 237, 238, 239, 240, 241, 242, 243, 244, 245, 246, 247, 248, 249, 250, 251, 252, 253, 254, 255, 256, 257, 258, 259, 260, 261, 262, 263, 264, 265, 266, 267, 268, 269, 270, 271, 272, 273, 274, 275, 276, 277, 278, 279, 280, 281, 282, 283, 284, 285, 286, 287, 288, 289, 290, 291, 292, 293, 294, 295, 296, 297, 298, 299, 300, 301, 302, 303, 304, 305, 306, 307, 308, 309, 310, 311, 312, 313, 314, 315, 316, 317, 318, 319, 320, 321, 322, 323, 324, 325, 326, 327, 328, 329, 330],
      "AcquisitionTime": ["111936.887500", "111937.892500", "111938.897500", "111939.900000", "111940.905000", "111941.910000", "111942.912500", "111943.917500", "111944.920000", "111945.925000", "111946.930000", "111947.932500", "111948.937500", "111949.940000", "111950.945000", "111951.950000", "111952.952500", "111953.957500", "111954.960000", "111955.965000", "111956.970000", "111957.972500", "111958.977500", "111959.980000", "112000.985000", "112001.990000", "112002.992500", "112003.997500", "112005.000000", "112006.005000", "112007.010000", "112008.012500", "112009.017500", "112010.020000", "112011.025000", "112012.030000", "112013.032500", "112014.037500", "112015.042500", "112016.045000", "112017.050000", "112018.052500", "112019.057500", "112020.062500", "112021.065000", "112022.070000", "112023.072500", "112024.077500", "112025.082500", "112026.085000", "112027.090000", "112028.092500", "112029.097500", "112030.102500", "112031.105000", "112032.110000", "112033.112500", "112034.117500", "112035.122500", "112036.125000", "112037.130000", "112038.132500", "112039.137500", "112040.142500", "112041.145000", "112042.150000", "112043.152500", "112044.157500", "112045.162500", "112046.165000", "112047.170000", "112048.175000", "112049.177500", "112050.182500", "112051.185000", "112052.190000", "112053.195000", "112054.197500", "112055.202500", "112056.205000", "112057.210000", "112058.215000", "112059.217500", "112100.222500", "112101.225000", "112102.230000", "112103.235000", "112104.237500", "112105.242500", "112106.245000", "112107.250000", "112108.255000", "112109.257500", "112110.262500", "112111.265000", "112112.270000", "112113.275000", "112114.277500", "112115.282500", "112116.287500", "112117.290000", "112118.295000", "112119.297500", "112120.302500", "112121.307500", "112122.310000", "112123.315000", "112124.317500", "112125.322500", "112126.327500", "112127.330000", "112128.335000", "112129.337500", "112130.342500", "112131.347500", "112132.350000", "112133.355000", "112134.357500", "112135.362500", "112136.367500", "112137.370000", "112138.375000", "112139.377500", "112140.382500", "112141.387500", "112142.390000", "112143.395000", "112144.397500", "112145.402500", "112146.407500", "112147.410000", "112148.415000", "112149.420000", "112150.422500", "112151.427500", "112152.430000", "112153.435000", "112154.440000", "112155.442500", "112156.447500", "112157.450000", "112158.455000", "112159.460000", "112200.462500", "112201.467500", "112202.470000", "112203.475000", "112204.480000", "112205.482500", "112206.487500", "112207.490000", "112208.495000", "112209.500000", "112210.502500", "112211.507500", "112212.510000", "112213.515000", "112214.520000", "112215.522500", "112216.527500", "112217.532500", "112218.535000", "112219.540000", "112220.542500", "112221.547500", "112222.552500", "112223.555000", "112224.560000", "112225.562500", "112226.567500", "112227.572500", "112228.575000", "112229.580000", "112230.582500", "112231.587500", "112232.592500", "112233.595000", "112234.600000", "112235.602500", "112236.607500", "112237.612500", "112238.615000", "112239.620000", "112240.622500", "112241.627500", "112242.632500", "112243.635000", "112244.640000", "112245.642500", "112246.647500", "112247.652500", "112248.655000", "112249.660000", "112250.665000", "112251.667500", "112252.672500", "112253.675000", "112254.680000", "112255.685000", "112256.687500", "112257.692500", "112258.695000", "112259.700000", "112300.705000", "112301.707500", "112302.712500", "112303.715000", "112304.720000", "112305.725000", "112306.727500", "112307.732500", "112308.735000", "112309.740000", "112310.745000", "112311.747500", "112312.752500", "112313.755000", "112314.760000", "112315.765000", "112316.767500", "112317.772500", "112318.775000", "112319.780000", "112320.785000", "112321.787500", "112322.792500", "112323.797500", "112324.800000", "112325.805000", "112326.807500", "112327.812500", "112328.817500", "112329.820000", "112330.825000", "112331.827500", "112332.832500", "112333.837500", "112334.840000", "112335.845000", "112336.847500", "112337.852500", "112338.857500", "112339.860000", "112340.865000", "112341.867500", "112342.872500", "112343.877500", "112344.880000", "112345.885000", "112346.887500", "112347.892500", "112348.897500", "112349.900000", "112350.905000", "112351.910000", "112352.912500", "112353.917500", "112354.920000", "112355.925000", "112356.930000", "112357.932500", "112358.937500", "112359.940000", "112400.945000", "112401.950000", "112402.952500", "112403.957500", "112404.960000", "112405.965000", "112406.970000", "112407.972500", "112408.977500", "112409.980000", "112410.985000", "112411.990000", "112412.992500", "112413.997500", "112415.000000", "112416.005000", "112417.010000", "112418.012500", "112419.017500", "112420.020000", "112421.025000", "112422.030000", "112423.032500", "112424.037500", "112425.042500", "112426.045000", "112427.050000", "112428.052500", "112429.057500", "112430.062500", "112431.065000", "112432.070000", "112433.072500", "112434.077500", "112435.082500", "112436.085000", "112437.090000", "112438.092500", "112439.097500", "112440.102500", "112441.105000", "112442.110000", "112443.112500", "112444.117500", "112445.122500", "112446.125000", "112447.130000", "112448.132500", "112449.137500", "112450.142500", "112451.145000", "112452.150000", "112453.152500", "112454.157500", "112455.162500", "112456.165000", "112457.170000", "112458.175000", "112459.177500", "112500.182500", "112501.185000", "112502.190000", "112503.195000", "112504.197500", "112505.202500", "112506.205000", "112507.210000"],
      "ContentTime": ["112016.156000", "112016.156000", "112016.156000", "112016.156000", "112016.156000", "112016.156000", "112016.171000", "112016.171000", "112016.171000", "112016.171000", "112016.187000", "112016.187000", "112016.187000", "112016.187000", "112016.187000", "112016.187000", "112016.203000", "112016.203000", "112016.203000", "112016.203000", "112016.203000", "112016.203000", "112016.203000", "112016.218000", "112016.218000", "112016.218000", "112016.218000", "112016.218000", "112016.218000", "112016.234000", "112016.234000", "112016.234000", "112016.234000", "112016.234000", "112016.234000", "112016.234000", "112016.234000", "112016.250000", "112036.109000", "112036.125000", "112036.125000", "112036.125000", "112036.140000", "112036.140000", "112036.140000", "112036.140000", "112036.140000", "112036.140000", "112036.140000", "112036.156000", "112036.156000", "112036.156000", "112036.156000", "112036.156000", "112036.171000", "112036.171000", "112036.171000", "112036.171000", "112056.109000", "112056.109000", "112056.125000", "112056.125000", "112056.125000", "112056.125000", "112056.125000", "112056.125000", "112056.125000", "112056.140000", "112056.140000", "112056.140000", "112056.140000", "112056.140000", "112056.140000", "112056.140000", "112056.156000", "112056.156000", "112056.156000", "112056.156000", "112116.109000", "112116.109000", "112116.125000", "112116.125000", "112116.125000", "112116.125000", "112116.125000", "112116.125000", "112116.140000", "112116.140000", "112116.140000", "112116.140000", "112116.140000", "112116.156000", "112116.156000", "112116.156000", "112116.156000", "112116.156000", "112116.156000", "112116.156000", "112136.109000", "112136.109000", "112136.125000", "112136.125000", "112136.125000", "112136.125000", "112136.125000", "112136.125000", "112136.125000", "112136.140000", "112136.140000", "112136.140000", "112136.140000", "112136.140000", "112136.156000", "112136.156000", "112136.156000", "112136.156000", "112136.156000", "112136.156000", "112156.109000", "112156.125000", "112156.125000", "112156.125000", "112156.125000", "112156.125000", "112156.125000", "112156.125000", "112156.140000", "112156.140000", "112156.140000", "112156.140000", "112156.140000", "112156.140000", "112156.140000", "112156.156000", "112156.156000", "112156.156000", "112156.156000", "112156.156000", "112216.109000", "112216.109000", "112216.125000", "112216.125000", "112216.125000", "112216.125000", "112216.125000", "112216.125000", "112216.125000", "112216.140000", "112216.140000", "112216.140000", "112216.140000", "112216.140000", "112216.140000", "112216.140000", "112216.156000", "112216.156000", "112216.156000", "112216.156000", "112236.109000", "112236.125000", "112236.125000", "112236.125000", "112236.140000", "112236.140000", "112236.140000", "112236.140000", "112236.140000", "112236.140000", "112236.140000", "112236.156000", "112236.156000", "112236.156000", "112236.156000", "112236.156000", "112236.156000", "112236.156000", "112236.171000", "112236.171000", "112256.109000", "112256.125000", "112256.125000", "112256.125000", "112256.125000", "112256.140000", "112256.140000", "112256.140000", "112256.140000", "112256.140000", "112256.140000", "112256.140000", "112256.156000", "112256.156000", "112256.156000", "112256.156000", "112256.156000", "112256.156000", "112256.156000", "112256.171000", "112316.109000", "112316.125000", "112316.125000", "112316.125000", "112316.125000", "112316.125000", "112316.140000", "112316.140000", "112316.140000", "112316.140000", "112316.140000", "112316.140000", "112316.140000", "112316.156000", "112316.156000", "112316.156000", "112316.156000", "112316.156000", "112316.156000", "112316.156000", "112336.109000", "112336.109000", "112336.125000", "112336.125000", "112336.125000", "112336.125000", "112336.125000", "112336.140000", "112336.140000", "112336.140000", "112336.140000", "112336.140000", "112336.140000", "112336.140000", "112336.156000", "112336.156000", "112336.156000", "112336.156000", "112336.156000", "112336.156000", "112356.109000", "112356.109000", "112356.125000", "112356.125000", "112356.125000", "112356.125000", "112356.125000", "112356.125000", "112356.140000", "112356.140000", "112356.140000", "112356.140000", "112356.140000", "112356.156000", "112356.156000", "112356.156000", "112356.156000", "112356.156000", "112356.156000", "112356.156000", "112416.109000", "112416.109000", "112416.125000", "112416.125000", "112416.125000", "112416.125000", "112416.125000", "112416.125000", "112416.140000", "112416.140000", "112416.140000", "112416.140000", "112416.140000", "112416.140000", "112416.140000", "112416.156000", "112416.156000", "112416.156000", "112416.156000", "112416.156000", "112436.109000", "112436.125000", "112436.140000", "112436.140000", "112436.140000", "112436.140000", "112436.140000", "112436.140000", "112436.140000", "112436.156000", "112436.156000", "112436.156000", "112436.156000", "112436.156000", "112436.156000", "112436.156000", "112436.156000", "112436.171000", "112436.171000", "112436.171000", "112456.109000", "112456.109000", "112456.125000", "112456.125000", "112456.125000", "112456.125000", "112456.125000", "112456.125000", "112456.125000", "112456.140000", "112456.140000", "112456.140000", "112456.140000", "112456.140000", "112456.140000", "112456.140000", "112456.156000", "112456.156000", "112456.156000", "112456.156000", "112512.578000", "112512.578000", "112512.593000", "112512.593000", "112512.593000", "112512.593000", "112512.593000", "112512.593000", "112512.593000", "112512.609000", "112512.609000", "112512.609000"],
      "InstanceCreationTime": ["112016.156000", "112016.156000", "112016.156000", "112016.156000", "112016.156000", "112016.156000", "112016.171000", "112016.171000", "112016.171000", "112016.171000", "112016.187000", "112016.187000", "112016.187000", "112016.187000", "112016.187000", "112016.187000", "112016.203000", "112016.203000", "112016.203000", "112016.203000", "112016.203000", "112016.203000", "112016.203000", "112016.218000", "112016.218000", "112016.218000", "112016.218000", "112016.218000", "112016.218000", "112016.234000", "112016.234000", "112016.234000", "112016.234000", "112016.234000", "112016.234000", "112016.234000", "112016.234000", "112016.250000", "112036.109000", "112036.125000", "112036.125000", "112036.125000", "112036.140000", "112036.140000", "112036.140000", "112036.140000", "112036.140000", "112036.140000", "112036.140000", "112036.156000", "112036.156000", "112036.156000", "112036.156000", "112036.156000", "112036.171000", "112036.171000", "112036.171000", "112036.171000", "112056.109000", "112056.109000", "112056.125000", "112056.125000", "112056.125000", "112056.125000", "112056.125000", "112056.125000", "112056.125000", "112056.140000", "112056.140000", "112056.140000", "112056.140000", "112056.140000", "112056.140000", "112056.140000", "112056.156000", "112056.156000", "112056.156000", "112056.156000", "112116.109000", "112116.109000", "112116.125000", "112116.125000", "112116.125000", "112116.125000", "112116.125000", "112116.125000", "112116.140000", "112116.140000", "112116.140000", "112116.140000", "112116.140000", "112116.156000", "112116.156000", "112116.156000", "112116.156000", "112116.156000", "112116.156000", "112116.156000", "112136.109000", "112136.109000", "112136.125000", "112136.125000", "112136.125000", "112136.125000", "112136.125000", "112136.125000", "112136.125000", "112136.140000", "112136.140000", "112136.140000", "112136.140000", "112136.140000", "112136.156000", "112136.156000", "112136.156000", "112136.156000", "112136.156000", "112136.156000", "112156.109000", "112156.125000", "112156.125000", "112156.125000", "112156.125000", "112156.125000", "112156.125000", "112156.125000", "112156.140000", "112156.140000", "112156.140000", "112156.140000", "112156.140000", "112156.140000", "112156.140000", "112156.156000", "112156.156000", "112156.156000", "112156.156000", "112156.156000", "112216.109000", "112216.109000", "112216.125000", "112216.125000", "112216.125000", "112216.125000", "112216.125000", "112216.125000", "112216.125000", "112216.140000", "112216.140000", "112216.140000", "112216.140000", "112216.140000", "112216.140000", "112216.140000", "112216.156000", "112216.156000", "112216.156000", "112216.156000", "112236.109000", "112236.125000", "112236.125000", "112236.125000", "112236.140000", "112236.140000", "112236.140000", "112236.140000", "112236.140000", "112236.140000", "112236.140000", "112236.156000", "112236.156000", "112236.156000", "112236.156000", "112236.156000", "112236.156000", "112236.156000", "112236.171000", "112236.171000", "112256.109000", "112256.125000", "112256.125000", "112256.125000", "112256.125000", "112256.140000", "112256.140000", "112256.140000", "112256.140000", "112256.140000", "112256.140000", "112256.140000", "112256.156000", "112256.156000", "112256.156000", "112256.156000", "112256.156000", "112256.156000", "112256.156000", "112256.171000", "112316.109000", "112316.125000", "112316.125000", "112316.125000", "112316.125000", "112316.125000", "112316.140000", "112316.140000", "112316.140000", "112316.140000", "112316.140000", "112316.140000", "112316.140000", "112316.156000", "112316.156000", "112316.156000", "112316.156000", "112316.156000", "112316.156000", "112316.156000", "112336.109000", "112336.109000", "112336.125000", "112336.125000", "112336.125000", "112336.125000", "112336.125000", "112336.140000", "112336.140000", "112336.140000", "112336.140000", "112336.140000", "112336.140000", "112336.140000", "112336.156000", "112336.156000", "112336.156000", "112336.156000", "112336.156000", "112336.156000", "112356.109000", "112356.109000", "112356.125000", "112356.125000", "112356.125000", "112356.125000", "112356.125000", "112356.125000", "112356.140000", "112356.140000", "112356.140000", "112356.140000", "112356.140000", "112356.156000", "112356.156000", "112356.156000", "112356.156000", "112356.156000", "112356.156000", "112356.156000", "112416.109000", "112416.109000", "112416.125000", "112416.125000", "112416.125000", "112416.125000", "112416.125000", "112416.125000", "112416.140000", "112416.140000", "112416.140000", "112416.140000", "112416.140000", "112416.140000", "112416.140000", "112416.156000", "112416.156000", "112416.156000", "112416.156000", "112416.156000", "112436.109000", "112436.125000", "112436.140000", "112436.140000", "112436.140000", "112436.140000", "112436.140000", "112436.140000", "112436.140000", "112436.156000", "112436.156000", "112436.156000", "112436.156000", "112436.156000", "112436.156000", "112436.156000", "112436.156000", "112436.171000", "112436.171000", "112436.171000", "112456.109000", "112456.109000", "112456.125000", "112456.125000", "112456.125000", "112456.125000", "112456.125000", "112456.125000", "112456.125000", "112456.140000", "112456.140000", "112456.140000", "112456.140000", "112456.140000", "112456.140000", "112456.140000", "112456.156000", "112456.156000", "112456.156000", "112456.156000", "112512.578000", "112512.578000", "112512.593000", "112512.593000", "112512.593000", "112512.593000", "112512.593000", "112512.593000", "112512.593000", "112512.609000", "112512.609000", "112512.609000"],
      "InstanceNumber": [1, 2, 3, 4, 5, 6, 7, 8, 9, 10, 11, 12, 13, 14, 15, 16, 17, 18, 19, 20, 21, 22, 23, 24, 25, 26, 27, 28, 29, 30, 31, 32, 33, 34, 35, 36, 37, 38, 39, 40, 41, 42, 43, 44, 45, 46, 47, 48, 49, 50, 51, 52, 53, 54, 55, 56, 57, 58, 59, 60, 61, 62, 63, 64, 65, 66, 67, 68, 69, 70, 71, 72, 73, 74, 75, 76, 77, 78, 79, 80, 81, 82, 83, 84, 85, 86, 87, 88, 89, 90, 91, 92, 93, 94, 95, 96, 97, 98, 99, 100, 101, 102, 103, 104, 105, 106, 107, 108, 109, 110, 111, 112, 113, 114, 115, 116, 117, 118, 119, 120, 121, 122, 123, 124, 125, 126, 127, 128, 129, 130, 131, 132, 133, 134, 135, 136, 137, 138, 139, 140, 141, 142, 143, 144, 145, 146, 147, 148, 149, 150, 151, 152, 153, 154, 155, 156, 157, 158, 159, 160, 161, 162, 163, 164, 165, 166, 167, 168, 169, 170, 171, 172, 173, 174, 175, 176, 177, 178, 179, 180, 181, 182, 183, 184, 185, 186, 187, 188, 189, 190, 191, 192, 193, 194, 195, 196, 197, 198, 199, 200, 201, 202, 203, 204, 205, 206, 207, 208, 209, 210, 211, 212, 213, 214, 215, 216, 217, 218, 219, 220, 221, 222, 223, 224, 225, 226, 227, 228, 229, 230, 231, 232, 233, 234, 235, 236, 237, 238, 239, 240, 241, 242, 243, 244, 245, 246, 247, 248, 249, 250, 251, 252, 253, 254, 255, 256, 257, 258, 259, 260, 261, 262, 263, 264, 265, 266, 267, 268, 269, 270, 271, 272, 273, 274, 275, 276, 277, 278, 279, 280, 281, 282, 283, 284, 285, 286, 287, 288, 289, 290, 291, 292, 293, 294, 295, 296, 297, 298, 299, 300, 301, 302, 303, 304, 305, 306, 307, 308, 309, 310, 311, 312, 313, 314, 315, 316, 317, 318, 319, 320, 321, 322, 323, 324, 325, 326, 327, 328, 329, 330],
      "LargestImagePixelValue": [1791, 1767, 1759, 1760, 1760, 1779, 1755, 1783, 1774, 1781, 1774, 1779, 1769, 1787, 1794, 1784, 1781, 1765, 1787, 1752, 1739, 1764, 1775, 1786, 1754, 1753, 1741, 1710, 1749, 1769, 1798, 1781, 1740, 1769, 1749, 1724, 1735, 1750, 1730, 1700, 1684, 1641, 1668, 1747, 1713, 1734, 1719, 1742, 1716, 1626, 1584, 1615, 1635, 1625, 1628, 1619, 1596, 1662, 1668, 1657, 1656, 1632, 1620, 1627, 1636, 1638, 1640, 1579, 1616, 1682, 1636, 1618, 1624, 1616, 1635, 1619, 1609, 1618, 1606, 1608, 1656, 1596, 1616, 1664, 1624, 1578, 1633, 1595, 1605, 1620, 1583, 1573, 1587, 1586, 1600, 1604, 1584, 1581, 1635, 1645, 1595, 1590, 1612, 1570, 1697, 1683, 1625, 1643, 1700, 1630, 1631, 1589, 1631, 1607, 1656, 1666, 1595, 1618, 1623, 1606, 1629, 1616, 1632, 1736, 1675, 1659, 1643, 1638, 1632, 1639, 1671, 1628, 1571, 1702, 1715, 1616, 1642, 1623, 1629, 1635, 1648, 1606, 1602, 1637, 1649, 1633, 1603, 1618, 1622, 1607, 1644, 1595, 1617, 1629, 1654, 1663, 1664, 1671, 1650, 1644, 1681, 1666, 1638, 1618, 1688, 1694, 1583, 1625, 1617, 1634, 1653, 1638, 1650, 1647, 1591, 1621, 1648, 1603, 1616, 1602, 1617, 1631, 1616, 1609, 1625, 1679, 1723, 1709, 1705, 1743, 1689, 1689, 1691, 1653, 1679, 1605, 1616, 1688, 1710, 1669, 1636, 1674, 1606, 1667, 1666, 1665, 1688, 1728, 1645, 1703, 1764, 1683, 1660, 1722, 1691, 1660, 1655, 1663, 1667, 1664, 1620, 1667, 1708, 1708, 1688, 1700, 1711, 1718, 1739, 1709, 1709, 1688, 1675, 1703, 1693, 1698, 1662, 1665, 1683, 1692, 1718, 1710, 1676, 1722, 1735, 1738, 1710, 1696, 1675, 1694, 1683, 1686, 1690, 1710, 1696, 1675, 1681, 1655, 1696, 1698, 1702, 1721, 1765, 1745, 1683, 1685, 1670, 1641, 1740, 1686, 1689, 1682, 1698, 1678, 1705, 1717, 1670, 1691, 1719, 1727, 1725, 1665, 1692, 1689, 1692, 1718, 1699, 1704, 1721, 1718, 1719, 1707, 1719, 1698, 1696, 1690, 1680, 1684, 1672, 1693, 1673, 1675, 1718, 1714, 1745, 1720, 1727, 1739, 1731, 1723, 1740, 1680, 1723, 1738, 1727, 1756, 1731, 1693, 1725, 1733, 1727, 1722, 1699, 1731, 1721, 1710, 1690, 1719, 1738, 1749],
      "WindowCenter": [353.0, 352.0, 352.0, 352.0, 352.0, 351.0, 352.0, 352.0, 352.0, 352.0, 352.0, 352.0, 353.0, 354.0, 354.0, 354.0, 353.0, 352.0, 352.0, 352.0, 353.0, 353.0, 353.0, 353.0, 353.0, 352.0, 353.0, 354.0, 355.0, 355.0, 355.0, 355.0, 354.0, 354.0, 353.0, 353.0, 354.0, 354.0, 353.0, 355.0, 355.0, 354.0, 354.0, 355.0, 354.0, 354.0, 354.0, 353.0, 351.0, 351.0, 350.0, 350.0, 350.0, 351.0, 351.0, 352.0, 353.0, 354.0, 355.0, 355.0, 354.0, 354.0, 354.0, 354.0, 355.0, 353.0, 353.0, 352.0, 352.0, 352.0, 352.0, 353.0, 355.0, 355.0, 354.0, 353.0, 352.0, 352.0, 352.0, 352.0, 352.0, 352.0, 353.0, 355.0, 356.0, 355.0, 355.0, 354.0, 353.0, 353.0, 353.0, 352.0, 352.0, 352.0, 352.0, 352.0, 353.0, 353.0, 354.0, 355.0, 354.0, 354.0, 353.0, 353.0, 352.0, 352.0, 353.0, 354.0, 355.0, 354.0, 354.0, 353.0, 353.0, 352.0, 352.0, 353.0, 353.0, 353.0, 354.0, 355.0, 355.0, 356.0, 355.0, 354.0, 353.0, 353.0, 354.0, 355.0, 355.0, 355.0, 354.0, 353.0, 353.0, 352.0, 352.0, 353.0, 354.0, 354.0, 354.0, 354.0, 353.0, 352.0, 352.0, 352.0, 352.0, 353.0, 352.0, 353.0, 354.0, 353.0, 353.0, 353.0, 353.0, 353.0, 354.0, 354.0, 354.0, 354.0, 354.0, 355.0, 355.0, 355.0, 354.0, 353.0, 353.0, 354.0, 354.0, 355.0, 355.0, 354.0, 354.0, 354.0, 353.0, 353.0, 354.0, 354.0, 354.0, 353.0, 352.0, 352.0, 351.0, 351.0, 352.0, 354.0, 355.0, 357.0, 357.0, 356.0, 356.0, 355.0, 355.0, 355.0, 355.0, 355.0, 355.0, 354.0, 353.0, 354.0, 354.0, 353.0, 354.0, 354.0, 353.0, 353.0, 353.0, 354.0, 354.0, 354.0, 353.0, 353.0, 354.0, 354.0, 355.0, 355.0, 355.0, 354.0, 353.0, 353.0, 352.0, 352.0, 352.0, 352.0, 353.0, 354.0, 355.0, 355.0, 355.0, 355.0, 355.0, 355.0, 355.0, 355.0, 355.0, 355.0, 355.0, 355.0, 355.0, 355.0, 355.0, 355.0, 355.0, 355.0, 355.0, 355.0, 355.0, 355.0, 354.0, 353.0, 353.0, 353.0, 353.0, 353.0, 353.0, 354.0, 354.0, 355.0, 355.0, 355.0, 355.0, 355.0, 355.0, 355.0, 355.0, 354.0, 354.0, 353.0, 353.0, 352.0, 353.0, 354.0, 354.0, 354.0, 354.0, 354.0, 353.0, 354.0, 355.0, 355.0, 356.0, 356.0, 356.0, 356.0, 356.0, 355.0, 354.0, 354.0, 353.0, 353.0, 354.0, 355.0, 356.0, 355.0, 356.0, 356.0, 356.0, 356.0, 356.0, 355.0, 355.0, 355.0, 355.0, 355.0, 356.0, 357.0, 357.0, 357.0, 357.0, 356.0, 355.0, 354.0, 354.0, 353.0, 354.0, 354.0, 354.0, 354.0, 355.0, 354.0, 355.0, 355.0, 355.0, 354.0, 354.0, 354.0, 354.0, 354.0, 355.0, 355.0, 355.0, 354.0],
