{
  "AcquisitionMatrixPE": 104,
  "AcquisitionNumber": 1,
  "AcquisitionTime": "11:56:21.122500",
  "BandwidthPerPixelPhaseEncode": 43.054,
  "BaseResolution": 104,
  "CoilString": "C:E1_2",
  "ConversionSoftware": "dcm2niix",
  "ConversionSoftwareVersion": "v1.0.20191031",
  "DerivedVendorReportedEchoSpacing": 0.000669999,
  "DeviceSerialNumber": "18932",
  "DwellTime": 2.8e-06,
  "EchoTime": 0.02,
  "EffectiveEchoSpacing": 0.000223333,
  "FlipAngle": 30,
  "ImageComments": "Unaliased_MB2_PE2",
  "ImageOrientationPatientDICOM": [1, 2e-16, 0, -2e-16, 0.987414, -0.158158],
  "ImageType": [
    "ORIGINAL",
    "PRIMARY",
    "M",
    "MB",
    "ND",
    "MOSAIC"
],
  "ImagingFrequency": 297.229,
  "InPlanePhaseEncodingDirectionDICOM": "COL",
  "InstitutionAddress": "Richmond_Street_North_1151_London_409EF2_Ontario_CA_N6A_5B7",
  "InstitutionName": "Robarts_Reserch_Institute",
  "InstitutionalDepartmentName": "Department",
  "MRAcquisitionType": "2D",
  "MagneticFieldStrength": 6.98,
  "Manufacturer": "Siemens",
  "ManufacturersModelName": "Investigational_Device_7T",
  "Modality": "MR",
  "MultibandAccelerationFactor": 2,
  "ParallelReductionFactorInPlane": 3,
  "PartialFourier": 0.875,
  "PatientPosition": "HFS",
  "PercentPhaseFOV": 100,
  "PhaseEncodingDirection": "j-",
  "PhaseEncodingSteps": 91,
  "PhaseResolution": 1,
  "PixelBandwidth": 1717,
  "ProcedureStepDescription": "Diedrichsen_SeqRep4",
  "ProtocolName": "mbep2d_bold_mb2_p3_AP_2iso",
  "PulseSequenceDetails": "%CustomerSeq%_cmrr_mbep2d_bold",
  "ReceiveCoilName": "CFMM_8Tx32Rx",
  "ReconMatrixPE": 104,
  "RefLinesPE": 36,
  "RepetitionTime": 1,
  "ScanOptions": "PFP_FS",
  "ScanningSequence": "EP",
  "SequenceName": "epfid2d1_104",
  "SequenceVariant": "SK_SS",
  "SeriesDescription": "mbep2d_bold_mb2_p3_AP_2iso",
  "SeriesNumber": 28,
  "ShimSetting": [-43, 1883, 307, 342, 11, -164, -204, -86],
  "SliceThickness": 2,
  "SliceTiming": [0, 0.2275, 0.4575, 0.685, 0.9125, 0.1375, 0.365, 0.5925, 0.8225, 0.0475, 0.275, 0.5025, 0.73, 0.9575, 0.1825, 0.41, 0.64, 0.8675, 0.0925, 0.32, 0.5475, 0.775, 0, 0.2275, 0.4575, 0.685, 0.9125, 0.1375, 0.365, 0.5925, 0.8225, 0.0475, 0.275, 0.5025, 0.73, 0.9575, 0.1825, 0.41, 0.64, 0.8675, 0.0925, 0.32, 0.5475, 0.775],
  "SoftwareVersions": "syngo_MR_B17",
  "SpacingBetweenSlices": 2,
  "StationName": "MASTER",
  "TaskName": "dsp",
  "TotalReadoutTime": 0.0230033,
  "TxRefAmp": 120,
  "dcmmeta_affine": [
    [-2.0, -4.000000067449534e-16, 6.326322323430879e-17, 110.53752899169922],
    [-4.000000067449534e-16, 1.9748276472091675, -0.3163161277770996, -106.99263763427734],
    [0.0, 0.3163161277770996, 1.9748276472091675, -51.37643814086914],
    [0.0, 0.0, 0.0, 1.0]
],
  "dcmmeta_reorient_transform": [
    [0.0, -1.0, 0.0, 103.0],
    [1.0, 0.0, 0.0, 0.0],
    [0.0, 0.0, 1.0, 0.0],
    [0.0, 0.0, 0.0, 1.0]
],
  "dcmmeta_shape": [104, 104, 44, 330],
  "dcmmeta_slice_dim": 2,
  "dcmmeta_version": 0.6,
  "global": {
    "const": {
      "AcquisitionMatrix": [104, 0, 0, 104],
      "AngioFlag": "N",
      "BitsAllocated": 16,
      "BitsStored": 12,
      "Columns": 728,
      "EchoNumbers": 1,
      "EchoTime": 20.0,
      "EchoTrainLength": 1,
      "FlipAngle": 30.0,
      "HighBit": 11,
      "ImageOrientationPatient": [1.0, 2e-16, 0.0, -2e-16, 0.98741380685208, -0.1581580666229],
      "ImagePositionPatient": [-734.53753042221, -712.5608198278, 79.894756400375],
      "ImageType": [
        "ORIGINAL",
        "PRIMARY",
        "M",
        "MB",
        "ND",
        "MOSAIC"
],
      "ImagedNucleus": "1H",
      "ImagingFrequency": 297.229065,
      "InPlanePhaseEncodingDirection": "COL",
      "MRAcquisitionType": "2D",
      "MagneticFieldStrength": 6.98,
      "Manufacturer": "SIEMENS",
      "ManufacturerModelName": "Investigational_Device_7T",
      "Modality": "MR",
      "NumberOfAverages": 1.0,
      "NumberOfPhaseEncodingSteps": 91,
      "PercentPhaseFieldOfView": 100.0,
      "PercentSampling": 100.0,
      "PerformedProcedureStepStartTime": "104908.406000",
      "PhotometricInterpretation": "MONOCHROME2",
      "PixelBandwidth": 1717.0,
      "PixelRepresentation": 0,
      "PixelSpacing": [2.0, 2.0],
      "ProtocolName": "mbep2d_bold_mb2_p3_AP 2iso",
      "RepetitionTime": 1000.0,
      "Rows": 728,
      "SAR": 0.0,
      "SamplesPerPixel": 1,
      "ScanOptions": [
        "PFP",
        "FS"
],
      "ScanningSequence": "EP",
      "SequenceName": "epfid2d1_104",
      "SequenceVariant": [
        "SK",
        "SS"
],
      "SeriesDescription": "mbep2d_bold_mb2_p3_AP 2iso",
      "SeriesNumber": 28,
      "SeriesTime": "115701.859000",
      "SliceLocation": -33.808056050358,
      "SliceThickness": 2.0,
      "SmallestImagePixelValue": 0,
      "SoftwareVersions": "syngo MR B17",
      "SpacingBetweenSlices": 1.999999996632,
      "SpecificCharacterSet": "ISO_IR 100",
      "StudyID": "1",
      "StudyTime": "104908.343000",
      "TransmitCoilName": "CFMM_8Tx32Rx",
      "VariableFlipAngleFlag": "N",
      "WindowCenterWidthExplanation": "Algo1",
      "dBdt": 0.0},
    "slices": {}
  },
  "time": {
    "samples": {
      "AcquisitionNumber": [1, 2, 3, 4, 5, 6, 7, 8, 9, 10, 11, 12, 13, 14, 15, 16, 17, 18, 19, 20, 21, 22, 23, 24, 25, 26, 27, 28, 29, 30, 31, 32, 33, 34, 35, 36, 37, 38, 39, 40, 41, 42, 43, 44, 45, 46, 47, 48, 49, 50, 51, 52, 53, 54, 55, 56, 57, 58, 59, 60, 61, 62, 63, 64, 65, 66, 67, 68, 69, 70, 71, 72, 73, 74, 75, 76, 77, 78, 79, 80, 81, 82, 83, 84, 85, 86, 87, 88, 89, 90, 91, 92, 93, 94, 95, 96, 97, 98, 99, 100, 101, 102, 103, 104, 105, 106, 107, 108, 109, 110, 111, 112, 113, 114, 115, 116, 117, 118, 119, 120, 121, 122, 123, 124, 125, 126, 127, 128, 129, 130, 131, 132, 133, 134, 135, 136, 137, 138, 139, 140, 141, 142, 143, 144, 145, 146, 147, 148, 149, 150, 151, 152, 153, 154, 155, 156, 157, 158, 159, 160, 161, 162, 163, 164, 165, 166, 167, 168, 169, 170, 171, 172, 173, 174, 175, 176, 177, 178, 179, 180, 181, 182, 183, 184, 185, 186, 187, 188, 189, 190, 191, 192, 193, 194, 195, 196, 197, 198, 199, 200, 201, 202, 203, 204, 205, 206, 207, 208, 209, 210, 211, 212, 213, 214, 215, 216, 217, 218, 219, 220, 221, 222, 223, 224, 225, 226, 227, 228, 229, 230, 231, 232, 233, 234, 235, 236, 237, 238, 239, 240, 241, 242, 243, 244, 245, 246, 247, 248, 249, 250, 251, 252, 253, 254, 255, 256, 257, 258, 259, 260, 261, 262, 263, 264, 265, 266, 267, 268, 269, 270, 271, 272, 273, 274, 275, 276, 277, 278, 279, 280, 281, 282, 283, 284, 285, 286, 287, 288, 289, 290, 291, 292, 293, 294, 295, 296, 297, 298, 299, 300, 301, 302, 303, 304, 305, 306, 307, 308, 309, 310, 311, 312, 313, 314, 315, 316, 317, 318, 319, 320, 321, 322, 323, 324, 325, 326, 327, 328, 329, 330],
      "AcquisitionTime": ["115621.122500", "115622.127500", "115623.130000", "115624.135000", "115625.140000", "115626.142500", "115627.147500", "115628.152500", "115629.155000", "115630.160000", "115631.162500", "115632.167500", "115633.172500", "115634.175000", "115635.180000", "115636.182500", "115637.187500", "115638.192500", "115639.195000", "115640.200000", "115641.202500", "115642.207500", "115643.212500", "115644.215000", "115645.220000", "115646.222500", "115647.227500", "115648.232500", "115649.235000", "115650.240000", "115651.242500", "115652.247500", "115653.252500", "115654.255000", "115655.260000", "115656.262500", "115657.267500", "115658.272500", "115659.275000", "115700.280000", "115701.285000", "115702.287500", "115703.292500", "115704.295000", "115705.300000", "115706.305000", "115707.307500", "115708.312500", "115709.315000", "115710.320000", "115711.325000", "115712.327500", "115713.332500", "115714.335000", "115715.340000", "115716.345000", "115717.347500", "115718.352500", "115719.355000", "115720.360000", "115721.365000", "115722.367500", "115723.372500", "115724.375000", "115725.380000", "115726.385000", "115727.387500", "115728.392500", "115729.395000", "115730.400000", "115731.405000", "115732.407500", "115733.412500", "115734.417500", "115735.420000", "115736.425000", "115737.427500", "115738.432500", "115739.437500", "115740.440000", "115741.445000", "115742.447500", "115743.452500", "115744.457500", "115745.460000", "115746.465000", "115747.467500", "115748.472500", "115749.477500", "115750.480000", "115751.485000", "115752.487500", "115753.492500", "115754.497500", "115755.500000", "115756.505000", "115757.507500", "115758.512500", "115759.517500", "115800.520000", "115801.525000", "115802.530000", "115803.532500", "115804.537500", "115805.540000", "115806.545000", "115807.550000", "115808.552500", "115809.557500", "115810.560000", "115811.565000", "115812.570000", "115813.572500", "115814.577500", "115815.580000", "115816.585000", "115817.590000", "115818.592500", "115819.597500", "115820.600000", "115821.605000", "115822.610000", "115823.612500", "115824.617500", "115825.620000", "115826.625000", "115827.630000", "115828.632500", "115829.637500", "115830.640000", "115831.645000", "115832.650000", "115833.652500", "115834.657500", "115835.662500", "115836.665000", "115837.670000", "115838.672500", "115839.677500", "115840.682500", "115841.685000", "115842.690000", "115843.692500", "115844.697500", "115845.702500", "115846.705000", "115847.710000", "115848.712500", "115849.717500", "115850.722500", "115851.725000", "115852.730000", "115853.732500", "115854.737500", "115855.742500", "115856.745000", "115857.750000", "115858.752500", "115859.757500", "115900.762500", "115901.765000", "115902.770000", "115903.772500", "115904.777500", "115905.782500", "115906.785000", "115907.790000", "115908.795000", "115909.797500", "115910.802500", "115911.805000", "115912.810000", "115913.815000", "115914.817500", "115915.822500", "115916.825000", "115917.830000", "115918.835000", "115919.837500", "115920.842500", "115921.845000", "115922.850000", "115923.855000", "115924.857500", "115925.862500", "115926.865000", "115927.870000", "115928.875000", "115929.877500", "115930.882500", "115931.885000", "115932.890000", "115933.895000", "115934.897500", "115935.902500", "115936.907500", "115937.910000", "115938.915000", "115939.917500", "115940.922500", "115941.927500", "115942.930000", "115943.935000", "115944.937500", "115945.942500", "115946.947500", "115947.950000", "115948.955000", "115949.957500", "115950.962500", "115951.967500", "115952.970000", "115953.975000", "115954.977500", "115955.982500", "115956.987500", "115957.990000", "115958.995000", "115959.997500", "120001.002500", "120002.007500", "120003.010000", "120004.015000", "120005.017500", "120006.022500", "120007.027500", "120008.030000", "120009.035000", "120010.040000", "120011.042500", "120012.047500", "120013.050000", "120014.055000", "120015.060000", "120016.062500", "120017.067500", "120018.070000", "120019.075000", "120020.080000", "120021.082500", "120022.087500", "120023.090000", "120024.095000", "120025.100000", "120026.102500", "120027.107500", "120028.110000", "120029.115000", "120030.120000", "120031.122500", "120032.127500", "120033.130000", "120034.135000", "120035.140000", "120036.142500", "120037.147500", "120038.152500", "120039.155000", "120040.160000", "120041.162500", "120042.167500", "120043.172500", "120044.175000", "120045.180000", "120046.182500", "120047.187500", "120048.192500", "120049.195000", "120050.200000", "120051.202500", "120052.207500", "120053.212500", "120054.215000", "120055.220000", "120056.222500", "120057.227500", "120058.232500", "120059.235000", "120100.240000", "120101.242500", "120102.247500", "120103.252500", "120104.255000", "120105.260000", "120106.262500", "120107.267500", "120108.272500", "120109.275000", "120110.280000", "120111.285000", "120112.287500", "120113.292500", "120114.295000", "120115.300000", "120116.305000", "120117.307500", "120118.312500", "120119.315000", "120120.320000", "120121.325000", "120122.327500", "120123.332500", "120124.335000", "120125.340000", "120126.345000", "120127.347500", "120128.352500", "120129.355000", "120130.360000", "120131.365000", "120132.367500", "120133.372500", "120134.375000", "120135.380000", "120136.385000", "120137.387500", "120138.392500", "120139.395000", "120140.400000", "120141.405000", "120142.407500", "120143.412500", "120144.417500", "120145.420000", "120146.425000", "120147.427500", "120148.432500", "120149.437500", "120150.440000", "120151.445000"],
      "ContentTime": ["115701.859000", "115701.859000", "115701.859000", "115701.859000", "115701.875000", "115701.875000", "115701.875000", "115701.875000", "115701.875000", "115701.890000", "115701.890000", "115701.890000", "115701.890000", "115701.890000", "115701.890000", "115701.890000", "115701.906000", "115701.906000", "115701.906000", "115701.906000", "115701.906000", "115701.906000", "115701.906000", "115701.906000", "115701.921000", "115701.921000", "115701.921000", "115701.921000", "115701.921000", "115701.921000", "115701.921000", "115701.937000", "115701.937000", "115701.937000", "115701.937000", "115701.937000", "115701.937000", "115701.953000", "115701.953000", "115721.812000", "115721.828000", "115721.828000", "115721.828000", "115721.828000", "115721.828000", "115721.843000", "115721.843000", "115721.843000", "115721.843000", "115721.843000", "115721.843000", "115721.843000", "115721.859000", "115721.859000", "115721.859000", "115721.859000", "115721.859000", "115721.859000", "115721.859000", "115741.812000", "115741.828000", "115741.828000", "115741.828000", "115741.828000", "115741.828000", "115741.843000", "115741.843000", "115741.843000", "115741.843000", "115741.843000", "115741.859000", "115741.859000", "115741.859000", "115741.859000", "115741.875000", "115741.875000", "115741.875000", "115741.875000", "115741.875000", "115801.828000", "115801.828000", "115801.828000", "115801.828000", "115801.843000", "115801.843000", "115801.843000", "115801.843000", "115801.843000", "115801.843000", "115801.859000", "115801.859000", "115801.875000", "115801.875000", "115801.875000", "115801.875000", "115801.875000", "115801.890000", "115801.890000", "115801.890000", "115821.812000", "115821.828000", "115821.828000", "115821.828000", "115821.828000", "115821.828000", "115821.843000", "115821.843000", "115821.843000", "115821.843000", "115821.843000", "115821.843000", "115821.859000", "115821.859000", "115821.859000", "115821.859000", "115821.859000", "115821.859000", "115821.859000", "115821.875000", "115841.812000", "115841.828000", "115841.828000", "115841.828000", "115841.828000", "115841.843000", "115841.859000", "115841.859000", "115841.859000", "115841.859000", "115841.859000", "115841.859000", "115841.859000", "115841.875000", "115841.875000", "115841.875000", "115841.875000", "115841.875000", "115841.875000", "115841.875000", "115901.812000", "115901.812000", "115901.828000", "115901.828000", "115901.828000", "115901.828000", "115901.843000", "115901.843000", "115901.843000", "115901.843000", "115901.843000", "115901.859000", "115901.859000", "115901.859000", "115901.859000", "115901.875000", "115901.875000", "115901.875000", "115901.875000", "115901.875000", "115921.812000", "115921.812000", "115921.828000", "115921.828000", "115921.828000", "115921.828000", "115921.843000", "115921.843000", "115921.843000", "115921.843000", "115921.843000", "115921.843000", "115921.843000", "115921.859000", "115921.859000", "115921.859000", "115921.859000", "115921.859000", "115921.859000", "115921.859000", "115941.812000", "115941.828000", "115941.828000", "115941.828000", "115941.843000", "115941.843000", "115941.859000", "115941.859000", "115941.859000", "115941.859000", "115941.859000", "115941.859000", "115941.859000", "115941.875000", "115941.875000", "115941.875000", "115941.875000", "115941.875000", "115941.890000", "115941.890000", "120001.812000", "120001.828000", "120001.828000", "120001.828000", "120001.828000", "120001.828000", "120001.843000", "120001.843000", "120001.843000", "120001.843000", "120001.843000", "120001.843000", "120001.843000", "120001.859000", "120001.859000", "120001.859000", "120001.859000", "120001.859000", "120001.859000", "120001.859000", "120021.812000", "120021.828000", "120021.828000", "120021.828000", "120021.828000", "120021.843000", "120021.843000", "120021.843000", "120021.843000", "120021.859000", "120021.859000", "120021.859000", "120021.859000", "120021.859000", "120021.859000", "120021.875000", "120021.875000", "120021.875000", "120021.875000", "120021.875000", "120041.812000", "120041.812000", "120041.843000", "120041.843000", "120041.843000", "120041.843000", "120041.859000", "120041.859000", "120041.859000", "120041.890000", "120041.890000", "120041.890000", "120041.890000", "120041.890000", "120041.890000", "120041.890000", "120041.906000", "120041.906000", "120041.906000", "120041.906000", "120101.812000", "120101.828000", "120101.828000", "120101.828000", "120101.843000", "120101.843000", "120101.859000", "120101.859000", "120101.859000", "120101.859000", "120101.859000", "120101.859000", "120101.875000", "120101.875000", "120101.875000", "120101.875000", "120101.875000", "120101.875000", "120101.890000", "120101.890000", "120121.812000", "120121.812000", "120121.828000", "120121.828000", "120121.828000", "120121.828000", "120121.843000", "120121.843000", "120121.843000", "120121.843000", "120121.859000", "120121.859000", "120121.859000", "120121.875000", "120121.875000", "120121.890000", "120121.890000", "120121.890000", "120121.890000", "120121.890000", "120141.812000", "120141.828000", "120141.828000", "120141.843000", "120141.843000", "120141.843000", "120141.859000", "120141.859000", "120141.859000", "120141.859000", "120141.859000", "120141.875000", "120141.875000", "120141.875000", "120141.875000", "120141.875000", "120141.875000", "120141.890000", "120141.890000", "120141.890000", "120157.578000", "120157.578000", "120157.593000", "120157.593000", "120157.609000", "120157.609000", "120157.625000", "120157.625000", "120157.625000", "120157.625000", "120157.625000"],
      "InstanceCreationTime": ["115701.859000", "115701.859000", "115701.859000", "115701.859000", "115701.875000", "115701.875000", "115701.875000", "115701.875000", "115701.875000", "115701.890000", "115701.890000", "115701.890000", "115701.890000", "115701.890000", "115701.890000", "115701.890000", "115701.906000", "115701.906000", "115701.906000", "115701.906000", "115701.906000", "115701.906000", "115701.906000", "115701.906000", "115701.921000", "115701.921000", "115701.921000", "115701.921000", "115701.921000", "115701.921000", "115701.921000", "115701.937000", "115701.937000", "115701.937000", "115701.937000", "115701.937000", "115701.937000", "115701.953000", "115701.953000", "115721.812000", "115721.828000", "115721.828000", "115721.828000", "115721.828000", "115721.828000", "115721.843000", "115721.843000", "115721.843000", "115721.843000", "115721.843000", "115721.843000", "115721.843000", "115721.859000", "115721.859000", "115721.859000", "115721.859000", "115721.859000", "115721.859000", "115721.859000", "115741.812000", "115741.828000", "115741.828000", "115741.828000", "115741.828000", "115741.828000", "115741.843000", "115741.843000", "115741.843000", "115741.843000", "115741.843000", "115741.859000", "115741.859000", "115741.859000", "115741.859000", "115741.875000", "115741.875000", "115741.875000", "115741.875000", "115741.875000", "115801.828000", "115801.828000", "115801.828000", "115801.828000", "115801.843000", "115801.843000", "115801.843000", "115801.843000", "115801.843000", "115801.843000", "115801.859000", "115801.859000", "115801.875000", "115801.875000", "115801.875000", "115801.875000", "115801.875000", "115801.890000", "115801.890000", "115801.890000", "115821.812000", "115821.828000", "115821.828000", "115821.828000", "115821.828000", "115821.828000", "115821.843000", "115821.843000", "115821.843000", "115821.843000", "115821.843000", "115821.843000", "115821.859000", "115821.859000", "115821.859000", "115821.859000", "115821.859000", "115821.859000", "115821.859000", "115821.875000", "115841.812000", "115841.828000", "115841.828000", "115841.828000", "115841.828000", "115841.843000", "115841.859000", "115841.859000", "115841.859000", "115841.859000", "115841.859000", "115841.859000", "115841.859000", "115841.875000", "115841.875000", "115841.875000", "115841.875000", "115841.875000", "115841.875000", "115841.875000", "115901.812000", "115901.812000", "115901.828000", "115901.828000", "115901.828000", "115901.828000", "115901.843000", "115901.843000", "115901.843000", "115901.843000", "115901.843000", "115901.859000", "115901.859000", "115901.859000", "115901.859000", "115901.875000", "115901.875000", "115901.875000", "115901.875000", "115901.875000", "115921.812000", "115921.812000", "115921.828000", "115921.828000", "115921.828000", "115921.828000", "115921.843000", "115921.843000", "115921.843000", "115921.843000", "115921.843000", "115921.843000", "115921.843000", "115921.859000", "115921.859000", "115921.859000", "115921.859000", "115921.859000", "115921.859000", "115921.859000", "115941.812000", "115941.828000", "115941.828000", "115941.828000", "115941.843000", "115941.843000", "115941.859000", "115941.859000", "115941.859000", "115941.859000", "115941.859000", "115941.859000", "115941.859000", "115941.875000", "115941.875000", "115941.875000", "115941.875000", "115941.875000", "115941.890000", "115941.890000", "120001.812000", "120001.828000", "120001.828000", "120001.828000", "120001.828000", "120001.828000", "120001.843000", "120001.843000", "120001.843000", "120001.843000", "120001.843000", "120001.843000", "120001.843000", "120001.859000", "120001.859000", "120001.859000", "120001.859000", "120001.859000", "120001.859000", "120001.859000", "120021.812000", "120021.828000", "120021.828000", "120021.828000", "120021.828000", "120021.843000", "120021.843000", "120021.843000", "120021.843000", "120021.859000", "120021.859000", "120021.859000", "120021.859000", "120021.859000", "120021.859000", "120021.875000", "120021.875000", "120021.875000", "120021.875000", "120021.875000", "120041.812000", "120041.812000", "120041.843000", "120041.843000", "120041.843000", "120041.843000", "120041.859000", "120041.859000", "120041.859000", "120041.890000", "120041.890000", "120041.890000", "120041.890000", "120041.890000", "120041.890000", "120041.890000", "120041.906000", "120041.906000", "120041.906000", "120041.906000", "120101.812000", "120101.828000", "120101.828000", "120101.828000", "120101.843000", "120101.843000", "120101.859000", "120101.859000", "120101.859000", "120101.859000", "120101.859000", "120101.859000", "120101.875000", "120101.875000", "120101.875000", "120101.875000", "120101.875000", "120101.875000", "120101.890000", "120101.890000", "120121.812000", "120121.812000", "120121.828000", "120121.828000", "120121.828000", "120121.828000", "120121.843000", "120121.843000", "120121.843000", "120121.843000", "120121.859000", "120121.859000", "120121.859000", "120121.875000", "120121.875000", "120121.890000", "120121.890000", "120121.890000", "120121.890000", "120121.890000", "120141.812000", "120141.828000", "120141.828000", "120141.843000", "120141.843000", "120141.843000", "120141.859000", "120141.859000", "120141.859000", "120141.859000", "120141.859000", "120141.875000", "120141.875000", "120141.875000", "120141.875000", "120141.875000", "120141.875000", "120141.890000", "120141.890000", "120141.890000", "120157.578000", "120157.578000", "120157.593000", "120157.593000", "120157.609000", "120157.609000", "120157.625000", "120157.625000", "120157.625000", "120157.625000", "120157.625000"],
      "InstanceNumber": [1, 2, 3, 4, 5, 6, 7, 8, 9, 10, 11, 12, 13, 14, 15, 16, 17, 18, 19, 20, 21, 22, 23, 24, 25, 26, 27, 28, 29, 30, 31, 32, 33, 34, 35, 36, 37, 38, 39, 40, 41, 42, 43, 44, 45, 46, 47, 48, 49, 50, 51, 52, 53, 54, 55, 56, 57, 58, 59, 60, 61, 62, 63, 64, 65, 66, 67, 68, 69, 70, 71, 72, 73, 74, 75, 76, 77, 78, 79, 80, 81, 82, 83, 84, 85, 86, 87, 88, 89, 90, 91, 92, 93, 94, 95, 96, 97, 98, 99, 100, 101, 102, 103, 104, 105, 106, 107, 108, 109, 110, 111, 112, 113, 114, 115, 116, 117, 118, 119, 120, 121, 122, 123, 124, 125, 126, 127, 128, 129, 130, 131, 132, 133, 134, 135, 136, 137, 138, 139, 140, 141, 142, 143, 144, 145, 146, 147, 148, 149, 150, 151, 152, 153, 154, 155, 156, 157, 158, 159, 160, 161, 162, 163, 164, 165, 166, 167, 168, 169, 170, 171, 172, 173, 174, 175, 176, 177, 178, 179, 180, 181, 182, 183, 184, 185, 186, 187, 188, 189, 190, 191, 192, 193, 194, 195, 196, 197, 198, 199, 200, 201, 202, 203, 204, 205, 206, 207, 208, 209, 210, 211, 212, 213, 214, 215, 216, 217, 218, 219, 220, 221, 222, 223, 224, 225, 226, 227, 228, 229, 230, 231, 232, 233, 234, 235, 236, 237, 238, 239, 240, 241, 242, 243, 244, 245, 246, 247, 248, 249, 250, 251, 252, 253, 254, 255, 256, 257, 258, 259, 260, 261, 262, 263, 264, 265, 266, 267, 268, 269, 270, 271, 272, 273, 274, 275, 276, 277, 278, 279, 280, 281, 282, 283, 284, 285, 286, 287, 288, 289, 290, 291, 292, 293, 294, 295, 296, 297, 298, 299, 300, 301, 302, 303, 304, 305, 306, 307, 308, 309, 310, 311, 312, 313, 314, 315, 316, 317, 318, 319, 320, 321, 322, 323, 324, 325, 326, 327, 328, 329, 330],
      "LargestImagePixelValue": [1748, 1772, 1723, 1699, 1747, 1734, 1726, 1734, 1727, 1703, 1684, 1677, 1699, 1698, 1689, 1703, 1720, 1721, 1654, 1710, 1692, 1674, 1661, 1692, 1709, 1701, 1779, 1735, 1741, 1723, 1741, 1739, 1716, 1736, 1735, 1748, 1723, 1719, 1736, 1748, 1747, 1726, 1756, 1726, 1741, 1761, 1752, 1746, 1782, 1748, 1723, 1752, 1734, 1738, 1759, 1810, 1790, 1716, 1763, 1759, 1783, 1791, 1776, 1769, 1758, 1764, 1828, 1778, 1746, 1763, 1733, 1740, 1764, 1754, 1745, 1762, 1780, 1766, 1755, 1770, 1764, 1759, 1740, 1749, 1786, 1782, 1739, 1721, 1769, 1770, 1756, 1751, 1739, 1594, 1584, 1637, 1685, 1657, 1638, 1646, 1670, 1588, 1587, 1635, 1661, 1700, 1672, 1681, 1670, 1712, 1598, 1573, 1619, 1661, 1712, 1709, 1749, 1722, 1723, 1708, 1743, 1710, 1657, 1672, 1659, 1582, 1597, 1629, 1658, 1635, 1695, 1684, 1597, 1598, 1596, 1655, 1668, 1676, 1675, 1688, 1715, 1716, 1718, 1701, 1670, 1655, 1647, 1695, 1670, 1702, 1718, 1725, 1704, 1661, 1583, 1614, 1641, 1652, 1662, 1653, 1679, 1675, 1685, 1693, 1710, 1724, 1688, 1687, 1727, 1701, 1726, 1639, 1696, 1589, 1582, 1676, 1669, 1625, 1639, 1619, 1615, 1575, 1693, 1625, 1600, 1614, 1614, 1608, 1588, 1581, 1569, 1592, 1588, 1585, 1596, 1638, 1611, 1654, 1613, 1635, 1629, 1624, 1625, 1616, 1646, 1642, 1609, 1638, 1635, 1800, 1727, 1669, 1645, 1646, 1651, 1662, 1638, 1640, 1659, 1630, 1600, 1625, 1624, 1623, 1640, 1700, 1753, 1696, 1645, 1666, 1762, 1651, 1635, 1635, 1671, 1694, 1666, 1633, 1623, 1620, 1764, 1765, 1651, 1689, 1734, 1756, 1682, 1625, 1677, 1759, 1736, 1632, 1618, 1648, 1691, 1691, 1659, 1649, 1647, 1635, 1640, 1659, 1629, 1657, 1643, 1654, 1693, 1696, 1663, 1654, 1656, 1635, 1603, 1619, 1610, 1653, 1659, 1618, 1635, 1653, 1675, 1654, 1624, 1634, 1618, 1601, 1634, 1623, 1629, 1602, 1664, 1681, 1679, 1642, 1638, 1604, 1631, 1624, 1624, 1638, 1617, 1639, 1619, 1638, 1590, 1616, 1617, 1634, 1640, 1672, 1629, 1646, 1649, 1648, 1630, 1631, 1632, 1630, 1633, 1660, 1630, 1649, 1635, 1635, 1656, 1660, 1657, 1647, 1653, 1637],
      "WindowCenter": [348.0, 348.0, 347.0, 348.0, 349.0, 349.0, 349.0, 349.0, 349.0, 349.0, 348.0, 349.0, 349.0, 349.0, 350.0, 350.0, 350.0, 350.0, 350.0, 351.0, 352.0, 351.0, 350.0, 350.0, 350.0, 349.0, 349.0, 349.0, 350.0, 350.0, 350.0, 349.0, 348.0, 348.0, 348.0, 348.0, 348.0, 348.0, 349.0, 350.0, 349.0, 349.0, 349.0, 349.0, 349.0, 349.0, 349.0, 349.0, 349.0, 349.0, 349.0, 350.0, 350.0, 351.0, 352.0, 351.0, 350.0, 350.0, 351.0, 352.0, 353.0, 354.0, 353.0, 352.0, 351.0, 351.0, 351.0, 349.0, 349.0, 350.0, 350.0, 350.0, 350.0, 350.0, 350.0, 350.0, 350.0, 350.0, 350.0, 351.0, 350.0, 350.0, 350.0, 350.0, 350.0, 350.0, 352.0, 353.0, 352.0, 351.0, 351.0, 351.0, 350.0, 350.0, 350.0, 351.0, 353.0, 353.0, 352.0, 351.0, 350.0, 349.0, 350.0, 351.0, 352.0, 353.0, 352.0, 351.0, 350.0, 350.0, 349.0, 349.0, 351.0, 351.0, 353.0, 352.0, 351.0, 351.0, 350.0, 350.0, 350.0, 351.0, 351.0, 353.0, 353.0, 352.0, 352.0, 352.0, 352.0, 352.0, 351.0, 351.0, 350.0, 350.0, 350.0, 351.0, 351.0, 351.0, 351.0, 351.0, 351.0, 350.0, 350.0, 350.0, 350.0, 350.0, 351.0, 351.0, 352.0, 352.0, 352.0, 351.0, 351.0, 350.0, 349.0, 350.0, 351.0, 351.0, 353.0, 353.0, 352.0, 352.0, 351.0, 352.0, 352.0, 351.0, 352.0, 352.0, 353.0, 353.0, 354.0, 353.0, 352.0, 352.0, 351.0, 352.0, 352.0, 352.0, 353.0, 352.0, 350.0, 351.0, 352.0, 352.0, 352.0, 352.0, 351.0, 350.0, 349.0, 348.0, 347.0, 348.0, 348.0, 349.0, 351.0, 352.0, 353.0, 353.0, 353.0, 352.0, 351.0, 351.0, 351.0, 350.0, 351.0, 352.0, 353.0, 353.0, 353.0, 354.0, 354.0, 354.0, 353.0, 353.0, 353.0, 352.0, 352.0, 351.0, 351.0, 350.0, 351.0, 352.0, 352.0, 352.0, 352.0, 352.0, 353.0, 352.0, 352.0, 352.0, 353.0, 353.0, 353.0, 353.0, 353.0, 352.0, 352.0, 351.0, 351.0, 351.0, 352.0, 352.0, 352.0, 353.0, 353.0, 353.0, 352.0, 351.0, 351.0, 352.0, 351.0, 352.0, 352.0, 352.0, 352.0, 352.0, 352.0, 352.0, 352.0, 351.0, 351.0, 351.0, 352.0, 352.0, 352.0, 353.0, 353.0, 352.0, 352.0, 352.0, 352.0, 351.0, 351.0, 351.0, 352.0, 352.0, 351.0, 351.0, 351.0, 351.0, 351.0, 351.0, 352.0, 352.0, 352.0, 352.0, 352.0, 350.0, 350.0, 351.0, 352.0, 352.0, 352.0, 351.0, 350.0, 351.0, 352.0, 352.0, 351.0, 350.0, 350.0, 350.0, 349.0, 349.0, 349.0, 351.0, 352.0, 352.0, 352.0, 352.0, 351.0, 350.0, 350.0, 351.0, 351.0, 351.0, 352.0, 352.0, 352.0, 353.0, 352.0, 352.0, 351.0, 351.0, 352.0, 351.0, 350.0, 351.0, 351.0, 351.0],
