{
  "AcquisitionMatrixPE": 104,
  "AcquisitionNumber": 1,
  "AcquisitionTime": "12:22:38.792500",
  "BandwidthPerPixelPhaseEncode": 43.054,
  "BaseResolution": 104,
  "CoilString": "C:E1_2",
  "ConversionSoftware": "dcm2niix",
  "ConversionSoftwareVersion": "v1.0.20191031",
  "DerivedVendorReportedEchoSpacing": 0.000669999,
  "DeviceSerialNumber": "18932",
  "DwellTime": 2.8e-06,
  "EchoTime": 0.02,
  "EffectiveEchoSpacing": 0.000223333,
  "FlipAngle": 30,
  "ImageComments": "Unaliased_MB2_PE2",
  "ImageOrientationPatientDICOM": [1, 2e-16, 0, -2e-16, 0.987414, -0.158158],
  "ImageType": [
    "ORIGINAL",
    "PRIMARY",
    "M",
    "MB",
    "ND",
    "MOSAIC"
],
  "ImagingFrequency": 297.229,
  "InPlanePhaseEncodingDirectionDICOM": "COL",
  "InstitutionAddress": "Richmond_Street_North_1151_London_409EF2_Ontario_CA_N6A_5B7",
  "InstitutionName": "Robarts_Reserch_Institute",
  "InstitutionalDepartmentName": "Department",
  "MRAcquisitionType": "2D",
  "MagneticFieldStrength": 6.98,
  "Manufacturer": "Siemens",
  "ManufacturersModelName": "Investigational_Device_7T",
  "Modality": "MR",
  "MultibandAccelerationFactor": 2,
  "ParallelReductionFactorInPlane": 3,
  "PartialFourier": 0.875,
  "PatientPosition": "HFS",
  "PercentPhaseFOV": 100,
  "PhaseEncodingDirection": "j-",
  "PhaseEncodingSteps": 91,
  "PhaseResolution": 1,
  "PixelBandwidth": 1717,
  "ProcedureStepDescription": "Diedrichsen_SeqRep4",
  "ProtocolName": "mbep2d_bold_mb2_p3_AP_2iso",
  "PulseSequenceDetails": "%CustomerSeq%_cmrr_mbep2d_bold",
  "ReceiveCoilName": "CFMM_8Tx32Rx",
  "ReconMatrixPE": 104,
  "RefLinesPE": 36,
  "RepetitionTime": 1,
  "ScanOptions": "PFP_FS",
  "ScanningSequence": "EP",
  "SequenceName": "epfid2d1_104",
  "SequenceVariant": "SK_SS",
  "SeriesDescription": "mbep2d_bold_mb2_p3_AP_2iso",
  "SeriesNumber": 36,
  "ShimSetting": [-43, 1883, 307, 342, 11, -164, -204, -86],
  "SliceThickness": 2,
  "SliceTiming": [0, 0.2275, 0.455, 0.6825, 0.9125, 0.135, 0.365, 0.5925, 0.82, 0.045, 0.2725, 0.5, 0.73, 0.9575, 0.1825, 0.41, 0.6375, 0.865, 0.09, 0.3175, 0.5475, 0.775, 0, 0.2275, 0.455, 0.6825, 0.9125, 0.135, 0.365, 0.5925, 0.82, 0.045, 0.2725, 0.5, 0.73, 0.9575, 0.1825, 0.41, 0.6375, 0.865, 0.09, 0.3175, 0.5475, 0.775],
  "SoftwareVersions": "syngo_MR_B17",
  "SpacingBetweenSlices": 2,
  "StationName": "MASTER",
  "TaskName": "dsp",
  "TotalReadoutTime": 0.0230033,
  "TxRefAmp": 120,
  "dcmmeta_affine": [
    [-2.0, -4.000000067449534e-16, 6.326322323430879e-17, 110.53752899169922],
    [-4.000000067449534e-16, 1.9748276472091675, -0.3163161277770996, -106.99263763427734],
    [0.0, 0.3163161277770996, 1.9748276472091675, -51.37643814086914],
    [0.0, 0.0, 0.0, 1.0]
],
  "dcmmeta_reorient_transform": [
    [0.0, -1.0, 0.0, 103.0],
    [1.0, 0.0, 0.0, 0.0],
    [0.0, 0.0, 1.0, 0.0],
    [0.0, 0.0, 0.0, 1.0]
],
  "dcmmeta_shape": [104, 104, 44, 330],
  "dcmmeta_slice_dim": 2,
  "dcmmeta_version": 0.6,
  "global": {
    "const": {
      "AcquisitionMatrix": [104, 0, 0, 104],
      "AngioFlag": "N",
      "BitsAllocated": 16,
      "BitsStored": 12,
      "Columns": 728,
      "EchoNumbers": 1,
      "EchoTime": 20.0,
      "EchoTrainLength": 1,
      "FlipAngle": 30.0,
      "HighBit": 11,
      "ImageOrientationPatient": [1.0, 2e-16, 0.0, -2e-16, 0.98741380685208, -0.1581580666229],
      "ImagePositionPatient": [-734.53753042221, -712.5608198278, 79.894756400375],
      "ImageType": [
        "ORIGINAL",
        "PRIMARY",
        "M",
        "MB",
        "ND",
        "MOSAIC"
],
      "ImagedNucleus": "1H",
      "ImagingFrequency": 297.22908,
      "InPlanePhaseEncodingDirection": "COL",
      "MRAcquisitionType": "2D",
      "MagneticFieldStrength": 6.98,
      "Manufacturer": "SIEMENS",
      "ManufacturerModelName": "Investigational_Device_7T",
      "Modality": "MR",
      "NumberOfAverages": 1.0,
      "NumberOfPhaseEncodingSteps": 91,
      "PercentPhaseFieldOfView": 100.0,
      "PercentSampling": 100.0,
      "PerformedProcedureStepStartTime": "104908.406000",
      "PhotometricInterpretation": "MONOCHROME2",
      "PixelBandwidth": 1717.0,
      "PixelRepresentation": 0,
      "PixelSpacing": [2.0, 2.0],
      "ProtocolName": "mbep2d_bold_mb2_p3_AP 2iso",
      "RepetitionTime": 1000.0,
      "Rows": 728,
      "SAR": 0.0,
      "SamplesPerPixel": 1,
      "ScanOptions": [
        "PFP",
        "FS"
],
      "ScanningSequence": "EP",
      "SequenceName": "epfid2d1_104",
      "SequenceVariant": [
        "SK",
        "SS"
],
      "SeriesDescription": "mbep2d_bold_mb2_p3_AP 2iso",
      "SeriesNumber": 36,
      "SeriesTime": "122316.187000",
      "SliceLocation": -33.808056050358,
      "SliceThickness": 2.0,
      "SmallestImagePixelValue": 0,
      "SoftwareVersions": "syngo MR B17",
      "SpacingBetweenSlices": 1.999999996632,
      "SpecificCharacterSet": "ISO_IR 100",
      "StudyID": "1",
      "StudyTime": "104908.343000",
      "TransmitCoilName": "CFMM_8Tx32Rx",
      "VariableFlipAngleFlag": "N",
      "WindowCenterWidthExplanation": "Algo1",
      "dBdt": 0.0},
    "slices": {}
  },
  "time": {
    "samples": {
      "AcquisitionNumber": [1, 2, 3, 4, 5, 6, 7, 8, 9, 10, 11, 12, 13, 14, 15, 16, 17, 18, 19, 20, 21, 22, 23, 24, 25, 26, 27, 28, 29, 30, 31, 32, 33, 34, 35, 36, 37, 38, 39, 40, 41, 42, 43, 44, 45, 46, 47, 48, 49, 50, 51, 52, 53, 54, 55, 56, 57, 58, 59, 60, 61, 62, 63, 64, 65, 66, 67, 68, 69, 70, 71, 72, 73, 74, 75, 76, 77, 78, 79, 80, 81, 82, 83, 84, 85, 86, 87, 88, 89, 90, 91, 92, 93, 94, 95, 96, 97, 98, 99, 100, 101, 102, 103, 104, 105, 106, 107, 108, 109, 110, 111, 112, 113, 114, 115, 116, 117, 118, 119, 120, 121, 122, 123, 124, 125, 126, 127, 128, 129, 130, 131, 132, 133, 134, 135, 136, 137, 138, 139, 140, 141, 142, 143, 144, 145, 146, 147, 148, 149, 150, 151, 152, 153, 154, 155, 156, 157, 158, 159, 160, 161, 162, 163, 164, 165, 166, 167, 168, 169, 170, 171, 172, 173, 174, 175, 176, 177, 178, 179, 180, 181, 182, 183, 184, 185, 186, 187, 188, 189, 190, 191, 192, 193, 194, 195, 196, 197, 198, 199, 200, 201, 202, 203, 204, 205, 206, 207, 208, 209, 210, 211, 212, 213, 214, 215, 216, 217, 218, 219, 220, 221, 222, 223, 224, 225, 226, 227, 228, 229, 230, 231, 232, 233, 234, 235, 236, 237, 238, 239, 240, 241, 242, 243, 244, 245, 246, 247, 248, 249, 250, 251, 252, 253, 254, 255, 256, 257, 258, 259, 260, 261, 262, 263, 264, 265, 266, 267, 268, 269, 270, 271, 272, 273, 274, 275, 276, 277, 278, 279, 280, 281, 282, 283, 284, 285, 286, 287, 288, 289, 290, 291, 292, 293, 294, 295, 296, 297, 298, 299, 300, 301, 302, 303, 304, 305, 306, 307, 308, 309, 310, 311, 312, 313, 314, 315, 316, 317, 318, 319, 320, 321, 322, 323, 324, 325, 326, 327, 328, 329, 330],
      "AcquisitionTime": ["122238.792500", "122239.795000", "122240.800000", "122241.805000", "122242.807500", "122243.812500", "122244.815000", "122245.820000", "122246.825000", "122247.827500", "122248.832500", "122249.835000", "122250.840000", "122251.845000", "122252.847500", "122253.852500", "122254.855000", "122255.860000", "122256.865000", "122257.867500", "122258.872500", "122259.875000", "122300.880000", "122301.885000", "122302.887500", "122303.892500", "122304.897500", "122305.900000", "122306.905000", "122307.907500", "122308.912500", "122309.917500", "122310.920000", "122311.925000", "122312.927500", "122313.932500", "122314.937500", "122315.940000", "122316.945000", "122317.947500", "122318.952500", "122319.957500", "122320.960000", "122321.965000", "122322.967500", "122323.972500", "122324.977500", "122325.980000", "122326.985000", "122327.987500", "122328.992500", "122329.997500", "122331.000000", "122332.005000", "122333.007500", "122334.012500", "122335.017500", "122336.020000", "122337.025000", "122338.030000", "122339.032500", "122340.037500", "122341.040000", "122342.045000", "122343.050000", "122344.052500", "122345.057500", "122346.060000", "122347.065000", "122348.070000", "122349.072500", "122350.077500", "122351.080000", "122352.085000", "122353.090000", "122354.092500", "122355.097500", "122356.100000", "122357.105000", "122358.110000", "122359.112500", "122400.117500", "122401.120000", "122402.125000", "122403.130000", "122404.132500", "122405.137500", "122406.140000", "122407.145000", "122408.150000", "122409.152500", "122410.157500", "122411.162500", "122412.165000", "122413.170000", "122414.172500", "122415.177500", "122416.182500", "122417.185000", "122418.190000", "122419.192500", "122420.197500", "122421.202500", "122422.205000", "122423.210000", "122424.212500", "122425.217500", "122426.222500", "122427.225000", "122428.230000", "122429.232500", "122430.237500", "122431.242500", "122432.245000", "122433.250000", "122434.252500", "122435.257500", "122436.262500", "122437.265000", "122438.270000", "122439.275000", "122440.277500", "122441.282500", "122442.285000", "122443.290000", "122444.295000", "122445.297500", "122446.302500", "122447.305000", "122448.310000", "122449.315000", "122450.317500", "122451.322500", "122452.325000", "122453.330000", "122454.335000", "122455.337500", "122456.342500", "122457.345000", "122458.350000", "122459.355000", "122500.357500", "122501.362500", "122502.365000", "122503.370000", "122504.375000", "122505.377500", "122506.382500", "122507.385000", "122508.390000", "122509.395000", "122510.397500", "122511.402500", "122512.407500", "122513.410000", "122514.415000", "122515.417500", "122516.422500", "122517.427500", "122518.430000", "122519.435000", "122520.437500", "122521.442500", "122522.447500", "122523.450000", "122524.455000", "122525.457500", "122526.462500", "122527.467500", "122528.470000", "122529.475000", "122530.477500", "122531.482500", "122532.487500", "122533.490000", "122534.495000", "122535.497500", "122536.502500", "122537.507500", "122538.510000", "122539.515000", "122540.520000", "122541.522500", "122542.527500", "122543.530000", "122544.535000", "122545.540000", "122546.542500", "122547.547500", "122548.550000", "122549.555000", "122550.560000", "122551.562500", "122552.567500", "122553.570000", "122554.575000", "122555.580000", "122556.582500", "122557.587500", "122558.590000", "122559.595000", "122600.600000", "122601.602500", "122602.607500", "122603.610000", "122604.615000", "122605.620000", "122606.622500", "122607.627500", "122608.630000", "122609.635000", "122610.640000", "122611.642500", "122612.647500", "122613.652500", "122614.655000", "122615.660000", "122616.662500", "122617.667500", "122618.672500", "122619.675000", "122620.680000", "122621.682500", "122622.687500", "122623.692500", "122624.695000", "122625.700000", "122626.702500", "122627.707500", "122628.712500", "122629.715000", "122630.720000", "122631.722500", "122632.727500", "122633.732500", "122634.735000", "122635.740000", "122636.742500", "122637.747500", "122638.752500", "122639.755000", "122640.760000", "122641.762500", "122642.767500", "122643.772500", "122644.775000", "122645.780000", "122646.785000", "122647.787500", "122648.792500", "122649.795000", "122650.800000", "122651.805000", "122652.807500", "122653.812500", "122654.815000", "122655.820000", "122656.825000", "122657.827500", "122658.832500", "122659.835000", "122700.840000", "122701.845000", "122702.847500", "122703.852500", "122704.855000", "122705.860000", "122706.865000", "122707.867500", "122708.872500", "122709.875000", "122710.880000", "122711.885000", "122712.887500", "122713.892500", "122714.897500", "122715.900000", "122716.905000", "122717.907500", "122718.912500", "122719.917500", "122720.920000", "122721.925000", "122722.927500", "122723.932500", "122724.937500", "122725.940000", "122726.945000", "122727.947500", "122728.952500", "122729.957500", "122730.960000", "122731.965000", "122732.967500", "122733.972500", "122734.977500", "122735.980000", "122736.985000", "122737.987500", "122738.992500", "122739.997500", "122741.000000", "122742.005000", "122743.007500", "122744.012500", "122745.017500", "122746.020000", "122747.025000", "122748.030000", "122749.032500", "122750.037500", "122751.040000", "122752.045000", "122753.050000", "122754.052500", "122755.057500", "122756.060000", "122757.065000", "122758.070000", "122759.072500", "122800.077500", "122801.080000", "122802.085000", "122803.090000", "122804.092500", "122805.097500", "122806.100000", "122807.105000", "122808.110000", "122809.112500"],
      "ContentTime": ["122316.203000", "122316.203000", "122316.203000", "122316.218000", "122316.218000", "122316.218000", "122316.234000", "122316.234000", "122316.234000", "122316.234000", "122316.234000", "122316.234000", "122316.250000", "122316.250000", "122316.250000", "122316.250000", "122316.265000", "122316.265000", "122316.265000", "122316.265000", "122316.265000", "122316.265000", "122316.281000", "122316.281000", "122316.281000", "122316.281000", "122316.281000", "122316.281000", "122316.281000", "122316.281000", "122316.296000", "122316.296000", "122316.296000", "122316.312000", "122316.312000", "122336.109000", "122336.125000", "122336.125000", "122336.125000", "122336.125000", "122336.125000", "122336.125000", "122336.125000", "122336.125000", "122336.140000", "122336.140000", "122336.156000", "122336.156000", "122336.156000", "122336.156000", "122336.156000", "122336.156000", "122336.156000", "122336.156000", "122336.171000", "122356.109000", "122356.125000", "122356.125000", "122356.125000", "122356.125000", "122356.125000", "122356.125000", "122356.140000", "122356.140000", "122356.140000", "122356.140000", "122356.140000", "122356.156000", "122356.156000", "122356.156000", "122356.156000", "122356.156000", "122356.156000", "122356.156000", "122356.171000", "122416.109000", "122416.125000", "122416.125000", "122416.125000", "122416.125000", "122416.125000", "122416.125000", "122416.125000", "122416.125000", "122416.140000", "122416.140000", "122416.140000", "122416.140000", "122416.156000", "122416.156000", "122416.156000", "122416.156000", "122416.156000", "122416.156000", "122416.156000", "122436.109000", "122436.109000", "122436.125000", "122436.125000", "122436.125000", "122436.125000", "122436.125000", "122436.140000", "122436.140000", "122436.156000", "122436.156000", "122436.171000", "122436.171000", "122436.171000", "122436.171000", "122436.171000", "122436.187000", "122436.187000", "122436.187000", "122436.187000", "122456.109000", "122456.109000", "122456.125000", "122456.125000", "122456.125000", "122456.125000", "122456.125000", "122456.140000", "122456.140000", "122456.140000", "122456.140000", "122456.140000", "122456.140000", "122456.140000", "122456.156000", "122456.156000", "122456.156000", "122456.156000", "122456.156000", "122456.156000", "122516.109000", "122516.109000", "122516.125000", "122516.125000", "122516.125000", "122516.125000", "122516.140000", "122516.140000", "122516.140000", "122516.140000", "122516.140000", "122516.140000", "122516.140000", "122516.156000", "122516.156000", "122516.156000", "122516.156000", "122516.156000", "122516.156000", "122516.156000", "122536.109000", "122536.125000", "122536.125000", "122536.125000", "122536.125000", "122536.140000", "122536.140000", "122536.140000", "122536.140000", "122536.140000", "122536.140000", "122536.140000", "122536.140000", "122536.156000", "122536.156000", "122536.156000", "122536.156000", "122536.156000", "122536.156000", "122536.156000", "122556.109000", "122556.109000", "122556.125000", "122556.125000", "122556.125000", "122556.140000", "122556.140000", "122556.140000", "122556.156000", "122556.156000", "122556.156000", "122556.156000", "122556.156000", "122556.156000", "122556.156000", "122556.171000", "122556.171000", "122556.171000", "122556.171000", "122556.171000", "122616.109000", "122616.109000", "122616.125000", "122616.125000", "122616.125000", "122616.125000", "122616.125000", "122616.125000", "122616.125000", "122616.125000", "122616.140000", "122616.140000", "122616.140000", "122616.140000", "122616.140000", "122616.140000", "122616.140000", "122616.156000", "122616.156000", "122616.156000", "122636.109000", "122636.125000", "122636.125000", "122636.125000", "122636.125000", "122636.140000", "122636.140000", "122636.140000", "122636.156000", "122636.156000", "122636.156000", "122636.156000", "122636.171000", "122636.171000", "122636.171000", "122636.187000", "122636.187000", "122636.187000", "122636.187000", "122636.187000", "122656.125000", "122656.125000", "122656.140000", "122656.140000", "122656.140000", "122656.140000", "122656.156000", "122656.156000", "122656.156000", "122656.156000", "122656.156000", "122656.156000", "122656.156000", "122656.171000", "122656.171000", "122656.171000", "122656.171000", "122656.171000", "122656.171000", "122656.171000", "122716.109000", "122716.125000", "122716.125000", "122716.125000", "122716.125000", "122716.140000", "122716.140000", "122716.140000", "122716.140000", "122716.140000", "122716.156000", "122716.156000", "122716.156000", "122716.156000", "122716.156000", "122716.156000", "122716.156000", "122716.171000", "122716.171000", "122716.171000", "122736.109000", "122736.125000", "122736.125000", "122736.125000", "122736.125000", "122736.125000", "122736.140000", "122736.140000", "122736.140000", "122736.140000", "122736.140000", "122736.140000", "122736.156000", "122736.156000", "122736.156000", "122736.156000", "122736.156000", "122736.171000", "122736.171000", "122736.171000", "122756.109000", "122756.140000", "122756.140000", "122756.140000", "122756.140000", "122756.156000", "122756.156000", "122756.156000", "122756.156000", "122756.156000", "122756.156000", "122756.171000", "122756.187000", "122756.187000", "122756.187000", "122756.203000", "122756.203000", "122756.203000", "122756.203000", "122756.203000", "122815.453000", "122815.453000", "122815.468000", "122815.468000", "122815.468000", "122815.484000", "122815.484000", "122815.484000", "122815.484000", "122815.484000", "122815.500000", "122815.500000", "122815.500000", "122815.500000", "122815.500000"],
      "InstanceCreationTime": ["122316.203000", "122316.203000", "122316.203000", "122316.218000", "122316.218000", "122316.218000", "122316.234000", "122316.234000", "122316.234000", "122316.234000", "122316.234000", "122316.234000", "122316.250000", "122316.250000", "122316.250000", "122316.250000", "122316.265000", "122316.265000", "122316.265000", "122316.265000", "122316.265000", "122316.265000", "122316.281000", "122316.281000", "122316.281000", "122316.281000", "122316.281000", "122316.281000", "122316.281000", "122316.281000", "122316.296000", "122316.296000", "122316.296000", "122316.312000", "122316.312000", "122336.109000", "122336.125000", "122336.125000", "122336.125000", "122336.125000", "122336.125000", "122336.125000", "122336.125000", "122336.125000", "122336.140000", "122336.140000", "122336.156000", "122336.156000", "122336.156000", "122336.156000", "122336.156000", "122336.156000", "122336.156000", "122336.156000", "122336.171000", "122356.109000", "122356.125000", "122356.125000", "122356.125000", "122356.125000", "122356.125000", "122356.125000", "122356.140000", "122356.140000", "122356.140000", "122356.140000", "122356.140000", "122356.156000", "122356.156000", "122356.156000", "122356.156000", "122356.156000", "122356.156000", "122356.156000", "122356.171000", "122416.109000", "122416.125000", "122416.125000", "122416.125000", "122416.125000", "122416.125000", "122416.125000", "122416.125000", "122416.125000", "122416.140000", "122416.140000", "122416.140000", "122416.140000", "122416.156000", "122416.156000", "122416.156000", "122416.156000", "122416.156000", "122416.156000", "122416.156000", "122436.109000", "122436.109000", "122436.125000", "122436.125000", "122436.125000", "122436.125000", "122436.125000", "122436.140000", "122436.140000", "122436.156000", "122436.156000", "122436.171000", "122436.171000", "122436.171000", "122436.171000", "122436.171000", "122436.187000", "122436.187000", "122436.187000", "122436.187000", "122456.109000", "122456.109000", "122456.125000", "122456.125000", "122456.125000", "122456.125000", "122456.125000", "122456.140000", "122456.140000", "122456.140000", "122456.140000", "122456.140000", "122456.140000", "122456.140000", "122456.156000", "122456.156000", "122456.156000", "122456.156000", "122456.156000", "122456.156000", "122516.109000", "122516.109000", "122516.125000", "122516.125000", "122516.125000", "122516.125000", "122516.140000", "122516.140000", "122516.140000", "122516.140000", "122516.140000", "122516.140000", "122516.140000", "122516.156000", "122516.156000", "122516.156000", "122516.156000", "122516.156000", "122516.156000", "122516.156000", "122536.109000", "122536.125000", "122536.125000", "122536.125000", "122536.125000", "122536.140000", "122536.140000", "122536.140000", "122536.140000", "122536.140000", "122536.140000", "122536.140000", "122536.140000", "122536.156000", "122536.156000", "122536.156000", "122536.156000", "122536.156000", "122536.156000", "122536.156000", "122556.109000", "122556.109000", "122556.125000", "122556.125000", "122556.125000", "122556.140000", "122556.140000", "122556.140000", "122556.156000", "122556.156000", "122556.156000", "122556.156000", "122556.156000", "122556.156000", "122556.156000", "122556.171000", "122556.171000", "122556.171000", "122556.171000", "122556.171000", "122616.109000", "122616.109000", "122616.125000", "122616.125000", "122616.125000", "122616.125000", "122616.125000", "122616.125000", "122616.125000", "122616.125000", "122616.140000", "122616.140000", "122616.140000", "122616.140000", "122616.140000", "122616.140000", "122616.140000", "122616.156000", "122616.156000", "122616.156000", "122636.109000", "122636.125000", "122636.125000", "122636.125000", "122636.125000", "122636.140000", "122636.140000", "122636.140000", "122636.156000", "122636.156000", "122636.156000", "122636.156000", "122636.171000", "122636.171000", "122636.171000", "122636.187000", "122636.187000", "122636.187000", "122636.187000", "122636.187000", "122656.125000", "122656.125000", "122656.140000", "122656.140000", "122656.140000", "122656.140000", "122656.156000", "122656.156000", "122656.156000", "122656.156000", "122656.156000", "122656.156000", "122656.156000", "122656.171000", "122656.171000", "122656.171000", "122656.171000", "122656.171000", "122656.171000", "122656.171000", "122716.109000", "122716.125000", "122716.125000", "122716.125000", "122716.125000", "122716.140000", "122716.140000", "122716.140000", "122716.140000", "122716.140000", "122716.156000", "122716.156000", "122716.156000", "122716.156000", "122716.156000", "122716.156000", "122716.156000", "122716.171000", "122716.171000", "122716.171000", "122736.109000", "122736.125000", "122736.125000", "122736.125000", "122736.125000", "122736.125000", "122736.140000", "122736.140000", "122736.140000", "122736.140000", "122736.140000", "122736.140000", "122736.156000", "122736.156000", "122736.156000", "122736.156000", "122736.156000", "122736.171000", "122736.171000", "122736.171000", "122756.109000", "122756.140000", "122756.140000", "122756.140000", "122756.140000", "122756.156000", "122756.156000", "122756.156000", "122756.156000", "122756.156000", "122756.156000", "122756.171000", "122756.187000", "122756.187000", "122756.187000", "122756.203000", "122756.203000", "122756.203000", "122756.203000", "122756.203000", "122815.453000", "122815.453000", "122815.468000", "122815.468000", "122815.468000", "122815.484000", "122815.484000", "122815.484000", "122815.484000", "122815.484000", "122815.500000", "122815.500000", "122815.500000", "122815.500000", "122815.500000"],
      "InstanceNumber": [1, 2, 3, 4, 5, 6, 7, 8, 9, 10, 11, 12, 13, 14, 15, 16, 17, 18, 19, 20, 21, 22, 23, 24, 25, 26, 27, 28, 29, 30, 31, 32, 33, 34, 35, 36, 37, 38, 39, 40, 41, 42, 43, 44, 45, 46, 47, 48, 49, 50, 51, 52, 53, 54, 55, 56, 57, 58, 59, 60, 61, 62, 63, 64, 65, 66, 67, 68, 69, 70, 71, 72, 73, 74, 75, 76, 77, 78, 79, 80, 81, 82, 83, 84, 85, 86, 87, 88, 89, 90, 91, 92, 93, 94, 95, 96, 97, 98, 99, 100, 101, 102, 103, 104, 105, 106, 107, 108, 109, 110, 111, 112, 113, 114, 115, 116, 117, 118, 119, 120, 121, 122, 123, 124, 125, 126, 127, 128, 129, 130, 131, 132, 133, 134, 135, 136, 137, 138, 139, 140, 141, 142, 143, 144, 145, 146, 147, 148, 149, 150, 151, 152, 153, 154, 155, 156, 157, 158, 159, 160, 161, 162, 163, 164, 165, 166, 167, 168, 169, 170, 171, 172, 173, 174, 175, 176, 177, 178, 179, 180, 181, 182, 183, 184, 185, 186, 187, 188, 189, 190, 191, 192, 193, 194, 195, 196, 197, 198, 199, 200, 201, 202, 203, 204, 205, 206, 207, 208, 209, 210, 211, 212, 213, 214, 215, 216, 217, 218, 219, 220, 221, 222, 223, 224, 225, 226, 227, 228, 229, 230, 231, 232, 233, 234, 235, 236, 237, 238, 239, 240, 241, 242, 243, 244, 245, 246, 247, 248, 249, 250, 251, 252, 253, 254, 255, 256, 257, 258, 259, 260, 261, 262, 263, 264, 265, 266, 267, 268, 269, 270, 271, 272, 273, 274, 275, 276, 277, 278, 279, 280, 281, 282, 283, 284, 285, 286, 287, 288, 289, 290, 291, 292, 293, 294, 295, 296, 297, 298, 299, 300, 301, 302, 303, 304, 305, 306, 307, 308, 309, 310, 311, 312, 313, 314, 315, 316, 317, 318, 319, 320, 321, 322, 323, 324, 325, 326, 327, 328, 329, 330],
      "LargestImagePixelValue": [1782, 1753, 1694, 1712, 1730, 1709, 1683, 1686, 1717, 1729, 1704, 1734, 1748, 1682, 1700, 1700, 1697, 1695, 1703, 1751, 1745, 1698, 1671, 1737, 1733, 1722, 1575, 1569, 1649, 1626, 1640, 1678, 1651, 1602, 1593, 1604, 1589, 1612, 1615, 1656, 1656, 1628, 1596, 1576, 1554, 1594, 1606, 1594, 1615, 1681, 1690, 1630, 1607, 1612, 1646, 1664, 1606, 1593, 1587, 1607, 1600, 1616, 1622, 1598, 1609, 1578, 1595, 1584, 1573, 1584, 1575, 1577, 1565, 1564, 1579, 1583, 1585, 1605, 1592, 1609, 1572, 1600, 1566, 1588, 1581, 1613, 1615, 1643, 1613, 1593, 1592, 1621, 1580, 1588, 1615, 1621, 1584, 1579, 1593, 1601, 1597, 1576, 1568, 1595, 1613, 1592, 1586, 1593, 1587, 1584, 1598, 1581, 1579, 1602, 1591, 1584, 1566, 1556, 1565, 1546, 1563, 1578, 1563, 1593, 1609, 1658, 1636, 1600, 1572, 1615, 1639, 1613, 1563, 1611, 1596, 1598, 1600, 1602, 1609, 1599, 1616, 1634, 1589, 1585, 1583, 1593, 1582, 1568, 1573, 1566, 1620, 1631, 1588, 1584, 1575, 1596, 1598, 1570, 1579, 1590, 1628, 1585, 1606, 1591, 1672, 1638, 1647, 1615, 1645, 1642, 1630, 1626, 1602, 1614, 1618, 1605, 1574, 1629, 1578, 1600, 1655, 1604, 1560, 1597, 1593, 1635, 1570, 1571, 1553, 1593, 1570, 1596, 1604, 1646, 1709, 1647, 1575, 1592, 1626, 1570, 1582, 1591, 1567, 1601, 1596, 1644, 1595, 1642, 1660, 1657, 1670, 1705, 1715, 1678, 1652, 1636, 1687, 1710, 1704, 1635, 1697, 1743, 1655, 1590, 1624, 1640, 1660, 1685, 1820, 1756, 1758, 1761, 1788, 1784, 1685, 1732, 1820, 1729, 1763, 1753, 1766, 1772, 1806, 1809, 1759, 1777, 1789, 1723, 1661, 1619, 1609, 1581, 1638, 1645, 1576, 1599, 1679, 1722, 1730, 1730, 1739, 1695, 1693, 1689, 1668, 1673, 1732, 1717, 1746, 1709, 1751, 1815, 1801, 1870, 1866, 1878, 1912, 1938, 1900, 1866, 1831, 1874, 1856, 1814, 1783, 1813, 1810, 1832, 1802, 1811, 1771, 1752, 1802, 1762, 1779, 1823, 1886, 1888, 1880, 1832, 1823, 1846, 1822, 1832, 1772, 1746, 1791, 1811, 1815, 1813, 1852, 1877, 1858, 1882, 1822, 1856, 1852, 1883, 1811, 1790, 1832, 1861, 1860, 1836, 1803, 1752, 1775, 1765, 1772, 1761],
      "WindowCenter": [351.0, 350.0, 348.0, 348.0, 348.0, 348.0, 347.0, 347.0, 348.0, 348.0, 348.0, 349.0, 349.0, 349.0, 350.0, 350.0, 350.0, 351.0, 352.0, 352.0, 351.0, 351.0, 350.0, 350.0, 350.0, 347.0, 349.0, 349.0, 350.0, 351.0, 352.0, 353.0, 352.0, 349.0, 349.0, 348.0, 347.0, 349.0, 349.0, 349.0, 347.0, 347.0, 346.0, 346.0, 346.0, 346.0, 346.0, 348.0, 350.0, 350.0, 349.0, 349.0, 350.0, 348.0, 349.0, 351.0, 350.0, 351.0, 350.0, 349.0, 349.0, 350.0, 350.0, 349.0, 350.0, 348.0, 348.0, 349.0, 347.0, 350.0, 350.0, 350.0, 350.0, 350.0, 350.0, 351.0, 351.0, 352.0, 351.0, 351.0, 351.0, 349.0, 347.0, 348.0, 348.0, 349.0, 349.0, 348.0, 347.0, 348.0, 347.0, 347.0, 348.0, 349.0, 351.0, 350.0, 351.0, 349.0, 349.0, 350.0, 349.0, 350.0, 350.0, 351.0, 351.0, 350.0, 352.0, 351.0, 350.0, 350.0, 350.0, 350.0, 350.0, 349.0, 348.0, 348.0, 348.0, 347.0, 347.0, 347.0, 346.0, 348.0, 348.0, 348.0, 348.0, 350.0, 350.0, 350.0, 350.0, 350.0, 350.0, 349.0, 348.0, 348.0, 348.0, 348.0, 349.0, 349.0, 350.0, 348.0, 348.0, 349.0, 348.0, 348.0, 347.0, 348.0, 348.0, 348.0, 349.0, 350.0, 350.0, 350.0, 348.0, 348.0, 350.0, 350.0, 349.0, 350.0, 352.0, 352.0, 352.0, 351.0, 352.0, 353.0, 352.0, 350.0, 350.0, 350.0, 350.0, 352.0, 353.0, 352.0, 351.0, 350.0, 350.0, 348.0, 346.0, 348.0, 348.0, 349.0, 350.0, 349.0, 348.0, 348.0, 348.0, 348.0, 347.0, 347.0, 347.0, 348.0, 347.0, 347.0, 348.0, 348.0, 348.0, 348.0, 348.0, 350.0, 350.0, 348.0, 347.0, 347.0, 347.0, 348.0, 348.0, 350.0, 350.0, 350.0, 350.0, 350.0, 348.0, 348.0, 348.0, 348.0, 348.0, 349.0, 349.0, 349.0, 349.0, 349.0, 349.0, 349.0, 349.0, 349.0, 349.0, 350.0, 349.0, 349.0, 350.0, 349.0, 349.0, 349.0, 350.0, 350.0, 349.0, 349.0, 350.0, 349.0, 349.0, 350.0, 349.0, 349.0, 349.0, 350.0, 350.0, 349.0, 349.0, 349.0, 349.0, 349.0, 348.0, 348.0, 347.0, 347.0, 347.0, 348.0, 349.0, 349.0, 350.0, 350.0, 349.0, 349.0, 348.0, 349.0, 349.0, 348.0, 348.0, 349.0, 349.0, 349.0, 349.0, 349.0, 350.0, 352.0, 352.0, 353.0, 353.0, 352.0, 352.0, 351.0, 350.0, 351.0, 350.0, 350.0, 350.0, 351.0, 351.0, 351.0, 350.0, 350.0, 349.0, 349.0, 350.0, 350.0, 350.0, 352.0, 351.0, 350.0, 350.0, 349.0, 349.0, 349.0, 348.0, 349.0, 348.0, 349.0, 350.0, 351.0, 351.0, 350.0, 351.0, 350.0, 350.0, 350.0, 350.0, 350.0, 350.0, 350.0, 351.0, 351.0, 351.0, 350.0, 349.0, 349.0, 348.0, 348.0, 348.0, 348.0, 348.0, 348.0],
