{
  "AcquisitionMatrixPE": 104,
  "AcquisitionNumber": 1,
  "AcquisitionTime": "12:16:7.530000",
  "BandwidthPerPixelPhaseEncode": 43.054,
  "BaseResolution": 104,
  "CoilString": "C:E1_2",
  "ConversionSoftware": "dcm2niix",
  "ConversionSoftwareVersion": "v1.0.20191031",
  "DerivedVendorReportedEchoSpacing": 0.000669999,
  "DeviceSerialNumber": "18932",
  "DwellTime": 2.8e-06,
  "EchoTime": 0.02,
  "EffectiveEchoSpacing": 0.000223333,
  "FlipAngle": 30,
  "ImageComments": "Unaliased_MB2_PE2",
  "ImageOrientationPatientDICOM": [1, 2e-16, 0, -2e-16, 0.987414, -0.158158],
  "ImageType": [
    "ORIGINAL",
    "PRIMARY",
    "M",
    "MB",
    "ND",
    "MOSAIC"
],
  "ImagingFrequency": 297.229,
  "InPlanePhaseEncodingDirectionDICOM": "COL",
  "InstitutionAddress": "Richmond_Street_North_1151_London_409EF2_Ontario_CA_N6A_5B7",
  "InstitutionName": "Robarts_Reserch_Institute",
  "InstitutionalDepartmentName": "Department",
  "MRAcquisitionType": "2D",
  "MagneticFieldStrength": 6.98,
  "Manufacturer": "Siemens",
  "ManufacturersModelName": "Investigational_Device_7T",
  "Modality": "MR",
  "MultibandAccelerationFactor": 2,
  "ParallelReductionFactorInPlane": 3,
  "PartialFourier": 0.875,
  "PatientPosition": "HFS",
  "PercentPhaseFOV": 100,
  "PhaseEncodingDirection": "j-",
  "PhaseEncodingSteps": 91,
  "PhaseResolution": 1,
  "PixelBandwidth": 1717,
  "ProcedureStepDescription": "Diedrichsen_SeqRep4",
  "ProtocolName": "mbep2d_bold_mb2_p3_AP_2iso",
  "PulseSequenceDetails": "%CustomerSeq%_cmrr_mbep2d_bold",
  "ReceiveCoilName": "CFMM_8Tx32Rx",
  "ReconMatrixPE": 104,
  "RefLinesPE": 36,
  "RepetitionTime": 1,
  "ScanOptions": "PFP_FS",
  "ScanningSequence": "EP",
  "SequenceName": "epfid2d1_104",
  "SequenceVariant": "SK_SS",
  "SeriesDescription": "mbep2d_bold_mb2_p3_AP_2iso",
  "SeriesNumber": 34,
  "ShimSetting": [-43, 1883, 307, 342, 11, -164, -204, -86],
  "SliceThickness": 2,
  "SliceTiming": [0, 0.2275, 0.455, 0.685, 0.9125, 0.1375, 0.365, 0.5925, 0.82, 0.045, 0.2725, 0.5025, 0.73, 0.9575, 0.1825, 0.41, 0.6375, 0.8675, 0.09, 0.32, 0.5475, 0.775, 0, 0.2275, 0.455, 0.685, 0.9125, 0.1375, 0.365, 0.5925, 0.82, 0.045, 0.2725, 0.5025, 0.73, 0.9575, 0.1825, 0.41, 0.6375, 0.8675, 0.09, 0.32, 0.5475, 0.775],
  "SoftwareVersions": "syngo_MR_B17",
  "SpacingBetweenSlices": 2,
  "StationName": "MASTER",
  "TaskName": "dsp",
  "TotalReadoutTime": 0.0230033,
  "TxRefAmp": 120,
  "dcmmeta_affine": [
    [-2.0, -4.000000067449534e-16, 6.326322323430879e-17, 110.53752899169922],
    [-4.000000067449534e-16, 1.9748276472091675, -0.3163161277770996, -106.99263763427734],
    [0.0, 0.3163161277770996, 1.9748276472091675, -51.37643814086914],
    [0.0, 0.0, 0.0, 1.0]
],
  "dcmmeta_reorient_transform": [
    [0.0, -1.0, 0.0, 103.0],
    [1.0, 0.0, 0.0, 0.0],
    [0.0, 0.0, 1.0, 0.0],
    [0.0, 0.0, 0.0, 1.0]
],
  "dcmmeta_shape": [104, 104, 44, 330],
  "dcmmeta_slice_dim": 2,
  "dcmmeta_version": 0.6,
  "global": {
    "const": {
      "AcquisitionMatrix": [104, 0, 0, 104],
      "AngioFlag": "N",
      "BitsAllocated": 16,
      "BitsStored": 12,
      "Columns": 728,
      "EchoNumbers": 1,
      "EchoTime": 20.0,
      "EchoTrainLength": 1,
      "FlipAngle": 30.0,
      "HighBit": 11,
      "ImageOrientationPatient": [1.0, 2e-16, 0.0, -2e-16, 0.98741380685208, -0.1581580666229],
      "ImagePositionPatient": [-734.53753042221, -712.5608198278, 79.894756400375],
      "ImageType": [
        "ORIGINAL",
        "PRIMARY",
        "M",
        "MB",
        "ND",
        "MOSAIC"
],
      "ImagedNucleus": "1H",
      "ImagingFrequency": 297.229073,
      "InPlanePhaseEncodingDirection": "COL",
      "MRAcquisitionType": "2D",
      "MagneticFieldStrength": 6.98,
      "Manufacturer": "SIEMENS",
      "ManufacturerModelName": "Investigational_Device_7T",
      "Modality": "MR",
      "NumberOfAverages": 1.0,
      "NumberOfPhaseEncodingSteps": 91,
      "PercentPhaseFieldOfView": 100.0,
      "PercentSampling": 100.0,
      "PerformedProcedureStepStartTime": "104908.406000",
      "PhotometricInterpretation": "MONOCHROME2",
      "PixelBandwidth": 1717.0,
      "PixelRepresentation": 0,
      "PixelSpacing": [2.0, 2.0],
      "ProtocolName": "mbep2d_bold_mb2_p3_AP 2iso",
      "RepetitionTime": 1000.0,
      "Rows": 728,
      "SAR": 0.0,
      "SamplesPerPixel": 1,
      "ScanOptions": [
        "PFP",
        "FS"
],
      "ScanningSequence": "EP",
      "SequenceName": "epfid2d1_104",
      "SequenceVariant": [
        "SK",
        "SS"
],
      "SeriesDescription": "mbep2d_bold_mb2_p3_AP 2iso",
      "SeriesNumber": 34,
      "SeriesTime": "121641.875000",
      "SliceLocation": -33.808056050358,
      "SliceThickness": 2.0,
      "SmallestImagePixelValue": 0,
      "SoftwareVersions": "syngo MR B17",
      "SpacingBetweenSlices": 1.999999996632,
      "SpecificCharacterSet": "ISO_IR 100",
      "StudyID": "1",
      "StudyTime": "104908.343000",
      "TransmitCoilName": "CFMM_8Tx32Rx",
      "VariableFlipAngleFlag": "N",
      "WindowCenterWidthExplanation": "Algo1",
      "dBdt": 0.0},
    "slices": {}
  },
  "time": {
    "samples": {
      "AcquisitionNumber": [1, 2, 3, 4, 5, 6, 7, 8, 9, 10, 11, 12, 13, 14, 15, 16, 17, 18, 19, 20, 21, 22, 23, 24, 25, 26, 27, 28, 29, 30, 31, 32, 33, 34, 35, 36, 37, 38, 39, 40, 41, 42, 43, 44, 45, 46, 47, 48, 49, 50, 51, 52, 53, 54, 55, 56, 57, 58, 59, 60, 61, 62, 63, 64, 65, 66, 67, 68, 69, 70, 71, 72, 73, 74, 75, 76, 77, 78, 79, 80, 81, 82, 83, 84, 85, 86, 87, 88, 89, 90, 91, 92, 93, 94, 95, 96, 97, 98, 99, 100, 101, 102, 103, 104, 105, 106, 107, 108, 109, 110, 111, 112, 113, 114, 115, 116, 117, 118, 119, 120, 121, 122, 123, 124, 125, 126, 127, 128, 129, 130, 131, 132, 133, 134, 135, 136, 137, 138, 139, 140, 141, 142, 143, 144, 145, 146, 147, 148, 149, 150, 151, 152, 153, 154, 155, 156, 157, 158, 159, 160, 161, 162, 163, 164, 165, 166, 167, 168, 169, 170, 171, 172, 173, 174, 175, 176, 177, 178, 179, 180, 181, 182, 183, 184, 185, 186, 187, 188, 189, 190, 191, 192, 193, 194, 195, 196, 197, 198, 199, 200, 201, 202, 203, 204, 205, 206, 207, 208, 209, 210, 211, 212, 213, 214, 215, 216, 217, 218, 219, 220, 221, 222, 223, 224, 225, 226, 227, 228, 229, 230, 231, 232, 233, 234, 235, 236, 237, 238, 239, 240, 241, 242, 243, 244, 245, 246, 247, 248, 249, 250, 251, 252, 253, 254, 255, 256, 257, 258, 259, 260, 261, 262, 263, 264, 265, 266, 267, 268, 269, 270, 271, 272, 273, 274, 275, 276, 277, 278, 279, 280, 281, 282, 283, 284, 285, 286, 287, 288, 289, 290, 291, 292, 293, 294, 295, 296, 297, 298, 299, 300, 301, 302, 303, 304, 305, 306, 307, 308, 309, 310, 311, 312, 313, 314, 315, 316, 317, 318, 319, 320, 321, 322, 323, 324, 325, 326, 327, 328, 329, 330],
      "AcquisitionTime": ["121607.530000", "121608.532500", "121609.537500", "121610.542500", "121611.545000", "121612.550000", "121613.552500", "121614.557500", "121615.562500", "121616.565000", "121617.570000", "121618.575000", "121619.577500", "121620.582500", "121621.585000", "121622.590000", "121623.595000", "121624.597500", "121625.602500", "121626.605000", "121627.610000", "121628.615000", "121629.617500", "121630.622500", "121631.625000", "121632.630000", "121633.635000", "121634.637500", "121635.642500", "121636.645000", "121637.650000", "121638.655000", "121639.657500", "121640.662500", "121641.665000", "121642.670000", "121643.675000", "121644.677500", "121645.682500", "121646.687500", "121647.690000", "121648.695000", "121649.697500", "121650.702500", "121651.707500", "121652.710000", "121653.715000", "121654.717500", "121655.722500", "121656.727500", "121657.730000", "121658.735000", "121659.737500", "121700.742500", "121701.747500", "121702.750000", "121703.755000", "121704.757500", "121705.762500", "121706.767500", "121707.770000", "121708.775000", "121709.777500", "121710.782500", "121711.787500", "121712.790000", "121713.795000", "121714.797500", "121715.802500", "121716.807500", "121717.810000", "121718.815000", "121719.820000", "121720.822500", "121721.827500", "121722.830000", "121723.835000", "121724.840000", "121725.842500", "121726.847500", "121727.850000", "121728.855000", "121729.860000", "121730.862500", "121731.867500", "121732.870000", "121733.875000", "121734.880000", "121735.882500", "121736.887500", "121737.890000", "121738.895000", "121739.900000", "121740.902500", "121741.907500", "121742.910000", "121743.915000", "121744.920000", "121745.922500", "121746.927500", "121747.932500", "121748.935000", "121749.940000", "121750.942500", "121751.947500", "121752.952500", "121753.955000", "121754.960000", "121755.962500", "121756.967500", "121757.972500", "121758.975000", "121759.980000", "121800.982500", "121801.987500", "121802.992500", "121803.995000", "121805.000000", "121806.002500", "121807.007500", "121808.012500", "121809.015000", "121810.020000", "121811.022500", "121812.027500", "121813.032500", "121814.035000", "121815.040000", "121816.042500", "121817.047500", "121818.052500", "121819.055000", "121820.060000", "121821.065000", "121822.067500", "121823.072500", "121824.075000", "121825.080000", "121826.085000", "121827.087500", "121828.092500", "121829.095000", "121830.100000", "121831.105000", "121832.107500", "121833.112500", "121834.115000", "121835.120000", "121836.125000", "121837.127500", "121838.132500", "121839.135000", "121840.140000", "121841.145000", "121842.147500", "121843.152500", "121844.155000", "121845.160000", "121846.165000", "121847.167500", "121848.172500", "121849.175000", "121850.180000", "121851.185000", "121852.187500", "121853.192500", "121854.197500", "121855.200000", "121856.205000", "121857.207500", "121858.212500", "121859.217500", "121900.220000", "121901.225000", "121902.227500", "121903.232500", "121904.237500", "121905.240000", "121906.245000", "121907.247500", "121908.252500", "121909.257500", "121910.260000", "121911.265000", "121912.267500", "121913.272500", "121914.277500", "121915.280000", "121916.285000", "121917.287500", "121918.292500", "121919.297500", "121920.300000", "121921.305000", "121922.310000", "121923.312500", "121924.317500", "121925.320000", "121926.325000", "121927.330000", "121928.332500", "121929.337500", "121930.340000", "121931.345000", "121932.350000", "121933.352500", "121934.357500", "121935.360000", "121936.365000", "121937.370000", "121938.372500", "121939.377500", "121940.380000", "121941.385000", "121942.390000", "121943.392500", "121944.397500", "121945.400000", "121946.405000", "121947.410000", "121948.412500", "121949.417500", "121950.420000", "121951.425000", "121952.430000", "121953.432500", "121954.437500", "121955.442500", "121956.445000", "121957.450000", "121958.452500", "121959.457500", "122000.462500", "122001.465000", "122002.470000", "122003.472500", "122004.477500", "122005.482500", "122006.485000", "122007.490000", "122008.492500", "122009.497500", "122010.502500", "122011.505000", "122012.510000", "122013.512500", "122014.517500", "122015.522500", "122016.525000", "122017.530000", "122018.532500", "122019.537500", "122020.542500", "122021.545000", "122022.550000", "122023.552500", "122024.557500", "122025.562500", "122026.565000", "122027.570000", "122028.575000", "122029.577500", "122030.582500", "122031.585000", "122032.590000", "122033.595000", "122034.597500", "122035.602500", "122036.605000", "122037.610000", "122038.615000", "122039.617500", "122040.622500", "122041.625000", "122042.630000", "122043.635000", "122044.637500", "122045.642500", "122046.645000", "122047.650000", "122048.655000", "122049.657500", "122050.662500", "122051.665000", "122052.670000", "122053.675000", "122054.677500", "122055.682500", "122056.687500", "122057.690000", "122058.695000", "122059.697500", "122100.702500", "122101.707500", "122102.710000", "122103.715000", "122104.717500", "122105.722500", "122106.727500", "122107.730000", "122108.735000", "122109.737500", "122110.742500", "122111.747500", "122112.750000", "122113.755000", "122114.757500", "122115.762500", "122116.767500", "122117.770000", "122118.775000", "122119.777500", "122120.782500", "122121.787500", "122122.790000", "122123.795000", "122124.797500", "122125.802500", "122126.807500", "122127.810000", "122128.815000", "122129.820000", "122130.822500", "122131.827500", "122132.830000", "122133.835000", "122134.840000", "122135.842500", "122136.847500", "122137.850000"],
      "ContentTime": ["121641.875000", "121641.875000", "121641.875000", "121641.890000", "121641.890000", "121641.890000", "121641.906000", "121641.906000", "121641.937000", "121641.937000", "121641.937000", "121641.937000", "121641.937000", "121641.937000", "121641.953000", "121641.953000", "121641.953000", "121641.953000", "121641.953000", "121641.968000", "121641.968000", "121641.968000", "121641.968000", "121641.968000", "121641.968000", "121641.984000", "121642.000000", "121642.000000", "121642.000000", "121642.000000", "121642.000000", "121642.015000", "121701.812000", "121701.828000", "121701.828000", "121701.828000", "121701.843000", "121701.859000", "121701.859000", "121701.859000", "121701.890000", "121701.890000", "121701.906000", "121701.984000", "121701.984000", "121701.984000", "121702.000000", "121702.000000", "121702.000000", "121702.000000", "121702.000000", "121702.000000", "121721.812000", "121721.812000", "121721.828000", "121721.828000", "121721.843000", "121721.843000", "121721.859000", "121721.859000", "121721.859000", "121721.875000", "121721.875000", "121721.875000", "121721.875000", "121721.875000", "121721.875000", "121721.875000", "121721.890000", "121721.890000", "121721.890000", "121721.890000", "121741.812000", "121741.828000", "121741.843000", "121741.843000", "121741.843000", "121741.859000", "121741.859000", "121741.859000", "121741.875000", "121741.875000", "121741.875000", "121741.906000", "121741.937000", "121741.937000", "121741.937000", "121741.937000", "121741.937000", "121741.953000", "121741.953000", "121741.953000", "121801.812000", "121801.828000", "121801.828000", "121801.828000", "121801.828000", "121801.843000", "121801.843000", "121801.843000", "121801.843000", "121801.859000", "121801.859000", "121801.859000", "121801.859000", "121801.875000", "121801.875000", "121801.875000", "121801.875000", "121801.875000", "121801.890000", "121801.890000", "121821.812000", "121821.828000", "121821.828000", "121821.828000", "121821.890000", "121821.890000", "121821.890000", "121821.890000", "121821.937000", "121821.968000", "121821.984000", "121821.984000", "121822.000000", "121822.000000", "121822.015000", "121822.015000", "121822.015000", "121822.031000", "121822.031000", "121822.031000", "121841.812000", "121841.828000", "121841.828000", "121841.828000", "121841.828000", "121841.828000", "121841.843000", "121841.843000", "121841.843000", "121841.859000", "121841.859000", "121841.859000", "121841.890000", "121841.890000", "121841.890000", "121841.890000", "121841.890000", "121841.890000", "121841.921000", "121841.921000", "121901.812000", "121901.828000", "121901.828000", "121901.828000", "121901.828000", "121901.843000", "121901.843000", "121901.843000", "121901.843000", "121901.859000", "121901.859000", "121901.859000", "121901.859000", "121901.875000", "121901.875000", "121901.875000", "121901.875000", "121901.875000", "121901.875000", "121901.890000", "121921.828000", "121921.828000", "121921.828000", "121921.828000", "121921.859000", "121921.859000", "121921.859000", "121921.859000", "121921.875000", "121921.875000", "121921.875000", "121921.875000", "121921.890000", "121921.890000", "121921.890000", "121921.890000", "121921.906000", "121921.906000", "121921.921000", "121921.921000", "121941.812000", "121941.828000", "121941.828000", "121941.828000", "121941.843000", "121941.843000", "121941.843000", "121941.843000", "121941.859000", "121941.859000", "121941.875000", "121941.875000", "121941.875000", "121941.875000", "121941.875000", "121941.875000", "121941.890000", "121941.890000", "121941.921000", "121941.921000", "122001.812000", "122001.812000", "122001.828000", "122001.828000", "122001.828000", "122001.843000", "122001.843000", "122001.843000", "122001.859000", "122001.859000", "122001.859000", "122001.875000", "122001.890000", "122001.890000", "122001.906000", "122001.906000", "122001.906000", "122001.937000", "122001.937000", "122001.937000", "122021.812000", "122021.828000", "122021.828000", "122021.828000", "122021.843000", "122021.843000", "122021.843000", "122021.843000", "122021.921000", "122021.921000", "122021.921000", "122021.937000", "122021.937000", "122021.937000", "122021.937000", "122021.937000", "122021.937000", "122021.937000", "122021.953000", "122021.953000", "122041.828000", "122041.859000", "122041.859000", "122041.859000", "122041.875000", "122041.875000", "122041.875000", "122041.875000", "122041.890000", "122041.890000", "122041.890000", "122041.890000", "122041.906000", "122041.906000", "122041.921000", "122041.921000", "122041.937000", "122041.937000", "122041.937000", "122041.953000", "122101.812000", "122101.828000", "122101.828000", "122101.828000", "122101.843000", "122101.843000", "122101.843000", "122101.843000", "122101.843000", "122101.843000", "122101.859000", "122101.859000", "122101.875000", "122101.875000", "122101.875000", "122101.875000", "122101.875000", "122101.875000", "122101.890000", "122101.890000", "122121.828000", "122121.828000", "122121.828000", "122121.828000", "122121.843000", "122121.843000", "122121.843000", "122121.843000", "122121.843000", "122121.859000", "122121.859000", "122121.859000", "122121.859000", "122121.859000", "122121.859000", "122121.859000", "122121.875000", "122121.875000", "122121.875000", "122121.875000", "122144.046000", "122144.046000", "122144.062000", "122144.062000", "122144.062000", "122144.062000", "122144.062000", "122144.078000", "122144.078000", "122144.078000", "122144.093000", "122144.093000", "122144.093000", "122144.093000", "122144.093000", "122144.093000", "122144.109000", "122144.109000"],
      "InstanceCreationTime": ["121641.875000", "121641.875000", "121641.875000", "121641.890000", "121641.890000", "121641.890000", "121641.906000", "121641.906000", "121641.937000", "121641.937000", "121641.937000", "121641.937000", "121641.937000", "121641.937000", "121641.953000", "121641.953000", "121641.953000", "121641.953000", "121641.953000", "121641.968000", "121641.968000", "121641.968000", "121641.968000", "121641.968000", "121641.968000", "121641.984000", "121642.000000", "121642.000000", "121642.000000", "121642.000000", "121642.000000", "121642.015000", "121701.812000", "121701.828000", "121701.828000", "121701.828000", "121701.843000", "121701.859000", "121701.859000", "121701.859000", "121701.890000", "121701.890000", "121701.906000", "121701.984000", "121701.984000", "121701.984000", "121702.000000", "121702.000000", "121702.000000", "121702.000000", "121702.000000", "121702.000000", "121721.812000", "121721.812000", "121721.828000", "121721.828000", "121721.843000", "121721.843000", "121721.859000", "121721.859000", "121721.859000", "121721.875000", "121721.875000", "121721.875000", "121721.875000", "121721.875000", "121721.875000", "121721.875000", "121721.890000", "121721.890000", "121721.890000", "121721.890000", "121741.812000", "121741.828000", "121741.843000", "121741.843000", "121741.843000", "121741.859000", "121741.859000", "121741.859000", "121741.875000", "121741.875000", "121741.875000", "121741.906000", "121741.937000", "121741.937000", "121741.937000", "121741.937000", "121741.937000", "121741.953000", "121741.953000", "121741.953000", "121801.812000", "121801.828000", "121801.828000", "121801.828000", "121801.828000", "121801.843000", "121801.843000", "121801.843000", "121801.843000", "121801.859000", "121801.859000", "121801.859000", "121801.859000", "121801.875000", "121801.875000", "121801.875000", "121801.875000", "121801.875000", "121801.890000", "121801.890000", "121821.812000", "121821.828000", "121821.828000", "121821.828000", "121821.890000", "121821.890000", "121821.890000", "121821.890000", "121821.937000", "121821.968000", "121821.984000", "121821.984000", "121822.000000", "121822.000000", "121822.015000", "121822.015000", "121822.015000", "121822.031000", "121822.031000", "121822.031000", "121841.812000", "121841.828000", "121841.828000", "121841.828000", "121841.828000", "121841.828000", "121841.843000", "121841.843000", "121841.843000", "121841.859000", "121841.859000", "121841.859000", "121841.890000", "121841.890000", "121841.890000", "121841.890000", "121841.890000", "121841.890000", "121841.921000", "121841.921000", "121901.812000", "121901.828000", "121901.828000", "121901.828000", "121901.828000", "121901.843000", "121901.843000", "121901.843000", "121901.843000", "121901.859000", "121901.859000", "121901.859000", "121901.859000", "121901.875000", "121901.875000", "121901.875000", "121901.875000", "121901.875000", "121901.875000", "121901.890000", "121921.828000", "121921.828000", "121921.828000", "121921.828000", "121921.859000", "121921.859000", "121921.859000", "121921.859000", "121921.875000", "121921.875000", "121921.875000", "121921.875000", "121921.890000", "121921.890000", "121921.890000", "121921.890000", "121921.906000", "121921.906000", "121921.921000", "121921.921000", "121941.812000", "121941.828000", "121941.828000", "121941.828000", "121941.843000", "121941.843000", "121941.843000", "121941.843000", "121941.859000", "121941.859000", "121941.875000", "121941.875000", "121941.875000", "121941.875000", "121941.875000", "121941.875000", "121941.890000", "121941.890000", "121941.921000", "121941.921000", "122001.812000", "122001.812000", "122001.828000", "122001.828000", "122001.828000", "122001.843000", "122001.843000", "122001.843000", "122001.859000", "122001.859000", "122001.859000", "122001.875000", "122001.890000", "122001.890000", "122001.906000", "122001.906000", "122001.906000", "122001.937000", "122001.937000", "122001.937000", "122021.812000", "122021.828000", "122021.828000", "122021.828000", "122021.843000", "122021.843000", "122021.843000", "122021.843000", "122021.921000", "122021.921000", "122021.921000", "122021.937000", "122021.937000", "122021.937000", "122021.937000", "122021.937000", "122021.937000", "122021.937000", "122021.953000", "122021.953000", "122041.828000", "122041.859000", "122041.859000", "122041.859000", "122041.875000", "122041.875000", "122041.875000", "122041.875000", "122041.890000", "122041.890000", "122041.890000", "122041.890000", "122041.906000", "122041.906000", "122041.921000", "122041.921000", "122041.937000", "122041.937000", "122041.937000", "122041.953000", "122101.812000", "122101.828000", "122101.828000", "122101.828000", "122101.843000", "122101.843000", "122101.843000", "122101.843000", "122101.843000", "122101.843000", "122101.859000", "122101.859000", "122101.875000", "122101.875000", "122101.875000", "122101.875000", "122101.875000", "122101.875000", "122101.890000", "122101.890000", "122121.828000", "122121.828000", "122121.828000", "122121.828000", "122121.843000", "122121.843000", "122121.843000", "122121.843000", "122121.843000", "122121.859000", "122121.859000", "122121.859000", "122121.859000", "122121.859000", "122121.859000", "122121.859000", "122121.875000", "122121.875000", "122121.875000", "122121.875000", "122144.046000", "122144.046000", "122144.062000", "122144.062000", "122144.062000", "122144.062000", "122144.062000", "122144.078000", "122144.078000", "122144.078000", "122144.093000", "122144.093000", "122144.093000", "122144.093000", "122144.093000", "122144.093000", "122144.109000", "122144.109000"],
      "InstanceNumber": [1, 2, 3, 4, 5, 6, 7, 8, 9, 10, 11, 12, 13, 14, 15, 16, 17, 18, 19, 20, 21, 22, 23, 24, 25, 26, 27, 28, 29, 30, 31, 32, 33, 34, 35, 36, 37, 38, 39, 40, 41, 42, 43, 44, 45, 46, 47, 48, 49, 50, 51, 52, 53, 54, 55, 56, 57, 58, 59, 60, 61, 62, 63, 64, 65, 66, 67, 68, 69, 70, 71, 72, 73, 74, 75, 76, 77, 78, 79, 80, 81, 82, 83, 84, 85, 86, 87, 88, 89, 90, 91, 92, 93, 94, 95, 96, 97, 98, 99, 100, 101, 102, 103, 104, 105, 106, 107, 108, 109, 110, 111, 112, 113, 114, 115, 116, 117, 118, 119, 120, 121, 122, 123, 124, 125, 126, 127, 128, 129, 130, 131, 132, 133, 134, 135, 136, 137, 138, 139, 140, 141, 142, 143, 144, 145, 146, 147, 148, 149, 150, 151, 152, 153, 154, 155, 156, 157, 158, 159, 160, 161, 162, 163, 164, 165, 166, 167, 168, 169, 170, 171, 172, 173, 174, 175, 176, 177, 178, 179, 180, 181, 182, 183, 184, 185, 186, 187, 188, 189, 190, 191, 192, 193, 194, 195, 196, 197, 198, 199, 200, 201, 202, 203, 204, 205, 206, 207, 208, 209, 210, 211, 212, 213, 214, 215, 216, 217, 218, 219, 220, 221, 222, 223, 224, 225, 226, 227, 228, 229, 230, 231, 232, 233, 234, 235, 236, 237, 238, 239, 240, 241, 242, 243, 244, 245, 246, 247, 248, 249, 250, 251, 252, 253, 254, 255, 256, 257, 258, 259, 260, 261, 262, 263, 264, 265, 266, 267, 268, 269, 270, 271, 272, 273, 274, 275, 276, 277, 278, 279, 280, 281, 282, 283, 284, 285, 286, 287, 288, 289, 290, 291, 292, 293, 294, 295, 296, 297, 298, 299, 300, 301, 302, 303, 304, 305, 306, 307, 308, 309, 310, 311, 312, 313, 314, 315, 316, 317, 318, 319, 320, 321, 322, 323, 324, 325, 326, 327, 328, 329, 330],
      "LargestImagePixelValue": [1791, 1770, 1823, 1808, 1745, 1756, 1766, 1767, 1756, 1766, 1761, 1734, 1715, 1769, 1757, 1664, 1614, 1735, 1719, 1740, 1729, 1754, 1749, 1736, 1703, 1728, 1720, 1673, 1735, 1701, 1679, 1648, 1692, 1726, 1684, 1660, 1619, 1596, 1623, 1627, 1653, 1663, 1641, 1665, 1659, 1623, 1598, 1638, 1630, 1650, 1666, 1612, 1592, 1606, 1614, 1614, 1643, 1606, 1619, 1665, 1648, 1649, 1617, 1642, 1628, 1668, 1677, 1671, 1631, 1669, 1713, 1689, 1692, 1678, 1708, 1672, 1656, 1638, 1683, 1678, 1656, 1722, 1741, 1704, 1654, 1695, 1694, 1715, 1700, 1727, 1685, 1668, 1729, 1705, 1706, 1704, 1649, 1563, 1627, 1653, 1646, 1648, 1698, 1643, 1639, 1596, 1629, 1592, 1575, 1575, 1628, 1627, 1600, 1602, 1603, 1633, 1617, 1620, 1624, 1619, 1632, 1661, 1645, 1688, 1673, 1655, 1673, 1667, 1689, 1692, 1691, 1699, 1685, 1716, 1695, 1648, 1693, 1615, 1601, 1611, 1625, 1587, 1590, 1607, 1622, 1603, 1640, 1628, 1641, 1629, 1637, 1646, 1597, 1619, 1605, 1598, 1597, 1588, 1618, 1612, 1604, 1610, 1610, 1614, 1644, 1671, 1645, 1631, 1589, 1621, 1637, 1621, 1621, 1599, 1594, 1621, 1605, 1591, 1616, 1592, 1640, 1588, 1592, 1634, 1662, 1725, 1708, 1722, 1749, 1685, 1700, 1635, 1584, 1581, 1616, 1662, 1658, 1627, 1632, 1664, 1670, 1628, 1666, 1686, 1665, 1661, 1636, 1594, 1591, 1620, 1645, 1630, 1699, 1687, 1652, 1655, 1669, 1656, 1611, 1593, 1635, 1628, 1604, 1685, 1628, 1625, 1606, 1623, 1661, 1597, 1619, 1582, 1614, 1603, 1608, 1589, 1621, 1616, 1603, 1596, 1587, 1708, 1654, 1605, 1598, 1580, 1599, 1610, 1582, 1572, 1581, 1584, 1602, 1568, 1608, 1576, 1595, 1600, 1601, 1616, 1617, 1601, 1619, 1605, 1653, 1605, 1613, 1622, 1630, 1621, 1588, 1597, 1603, 1594, 1592, 1602, 1591, 1624, 1616, 1597, 1601, 1612, 1600, 1595, 1598, 1585, 1601, 1625, 1626, 1591, 1618, 1586, 1595, 1572, 1599, 1588, 1592, 1598, 1638, 1655, 1688, 1669, 1618, 1627, 1618, 1628, 1633, 1654, 1617, 1646, 1654, 1621, 1617, 1653, 1649, 1696, 1660, 1620, 1631, 1590, 1647, 1608, 1611, 1636, 1620, 1601, 1601, 1595, 1662, 1620],
      "WindowCenter": [351.0, 350.0, 350.0, 350.0, 349.0, 349.0, 349.0, 349.0, 349.0, 349.0, 349.0, 348.0, 349.0, 349.0, 349.0, 350.0, 351.0, 351.0, 351.0, 352.0, 351.0, 351.0, 350.0, 350.0, 350.0, 350.0, 349.0, 351.0, 351.0, 350.0, 350.0, 350.0, 351.0, 350.0, 349.0, 350.0, 350.0, 350.0, 350.0, 351.0, 351.0, 351.0, 351.0, 351.0, 351.0, 350.0, 351.0, 351.0, 352.0, 352.0, 352.0, 351.0, 350.0, 350.0, 349.0, 350.0, 350.0, 351.0, 352.0, 353.0, 351.0, 351.0, 351.0, 351.0, 351.0, 351.0, 351.0, 351.0, 351.0, 353.0, 353.0, 351.0, 351.0, 351.0, 351.0, 350.0, 350.0, 350.0, 350.0, 350.0, 351.0, 353.0, 352.0, 351.0, 352.0, 351.0, 351.0, 350.0, 350.0, 350.0, 350.0, 350.0, 351.0, 351.0, 351.0, 351.0, 351.0, 350.0, 350.0, 350.0, 351.0, 352.0, 352.0, 351.0, 352.0, 351.0, 351.0, 351.0, 351.0, 351.0, 350.0, 349.0, 349.0, 349.0, 349.0, 349.0, 350.0, 350.0, 350.0, 350.0, 349.0, 350.0, 350.0, 350.0, 349.0, 350.0, 350.0, 350.0, 350.0, 351.0, 351.0, 351.0, 352.0, 352.0, 352.0, 352.0, 352.0, 351.0, 351.0, 351.0, 351.0, 351.0, 351.0, 350.0, 349.0, 349.0, 349.0, 349.0, 349.0, 349.0, 349.0, 349.0, 349.0, 349.0, 350.0, 350.0, 351.0, 351.0, 352.0, 352.0, 351.0, 351.0, 351.0, 351.0, 350.0, 350.0, 350.0, 350.0, 350.0, 350.0, 350.0, 350.0, 351.0, 349.0, 349.0, 350.0, 350.0, 350.0, 351.0, 351.0, 352.0, 352.0, 351.0, 352.0, 351.0, 351.0, 351.0, 351.0, 350.0, 350.0, 351.0, 351.0, 351.0, 351.0, 351.0, 351.0, 351.0, 350.0, 350.0, 348.0, 347.0, 347.0, 347.0, 347.0, 348.0, 348.0, 348.0, 348.0, 349.0, 350.0, 350.0, 350.0, 350.0, 350.0, 350.0, 350.0, 350.0, 351.0, 351.0, 351.0, 351.0, 351.0, 351.0, 350.0, 349.0, 348.0, 348.0, 349.0, 349.0, 349.0, 350.0, 350.0, 351.0, 350.0, 350.0, 350.0, 351.0, 351.0, 351.0, 349.0, 349.0, 350.0, 351.0, 350.0, 350.0, 351.0, 351.0, 351.0, 349.0, 349.0, 348.0, 348.0, 348.0, 347.0, 349.0, 350.0, 350.0, 351.0, 351.0, 351.0, 351.0, 352.0, 352.0, 352.0, 353.0, 351.0, 351.0, 352.0, 352.0, 351.0, 350.0, 350.0, 350.0, 350.0, 350.0, 350.0, 351.0, 351.0, 350.0, 350.0, 350.0, 350.0, 349.0, 350.0, 350.0, 351.0, 351.0, 352.0, 352.0, 352.0, 350.0, 350.0, 350.0, 350.0, 350.0, 350.0, 351.0, 351.0, 352.0, 353.0, 353.0, 352.0, 352.0, 353.0, 353.0, 354.0, 353.0, 352.0, 352.0, 352.0, 352.0, 351.0, 352.0, 353.0, 352.0, 354.0, 353.0, 353.0, 352.0, 351.0, 351.0, 350.0, 349.0, 349.0, 349.0, 349.0, 350.0, 351.0, 351.0, 351.0],
