{
  "AcquisitionMatrixPE": 104,
  "AcquisitionNumber": 1,
  "AcquisitionTime": "15:13:56.397500",
  "BandwidthPerPixelPhaseEncode": 43.054,
  "BaseResolution": 104,
  "CoilString": "C:E1_2",
  "ConversionSoftware": "dcm2niix",
  "ConversionSoftwareVersion": "v1.0.20191031",
  "DerivedVendorReportedEchoSpacing": 0.000669999,
  "DeviceSerialNumber": "18932",
  "DwellTime": 2.8e-06,
  "EchoTime": 0.02,
  "EffectiveEchoSpacing": 0.000223333,
  "FlipAngle": 30,
  "ImageComments": "Unaliased_MB2_PE2",
  "ImageOrientationPatientDICOM": [1, 0, 0, 0, 0.989272, -0.146083],
  "ImageType": [
    "ORIGINAL",
    "PRIMARY",
    "M",
    "MB",
    "ND",
    "MOSAIC"
],
  "ImagingFrequency": 297.229,
  "InPlanePhaseEncodingDirectionDICOM": "COL",
  "InstitutionAddress": "Richmond_Street_North_1151_London_409EF2_Ontario_CA_N6A_5B7",
  "InstitutionName": "Robarts_Reserch_Institute",
  "InstitutionalDepartmentName": "Department",
  "MRAcquisitionType": "2D",
  "MagneticFieldStrength": 6.98,
  "Manufacturer": "Siemens",
  "ManufacturersModelName": "Investigational_Device_7T",
  "Modality": "MR",
  "MultibandAccelerationFactor": 2,
  "ParallelReductionFactorInPlane": 3,
  "PartialFourier": 0.875,
  "PatientPosition": "HFS",
  "PercentPhaseFOV": 100,
  "PhaseEncodingDirection": "j-",
  "PhaseEncodingSteps": 91,
  "PhaseResolution": 1,
  "PixelBandwidth": 1717,
  "ProcedureStepDescription": "Diedrichsen_SeqRep4",
  "ProtocolName": "mbep2d_bold_mb2_p3_AP_2iso",
  "PulseSequenceDetails": "%CustomerSeq%_cmrr_mbep2d_bold",
  "ReceiveCoilName": "CFMM_8Tx32Rx",
  "ReconMatrixPE": 104,
  "RefLinesPE": 36,
  "RepetitionTime": 1,
  "ScanOptions": "PFP_FS",
  "ScanningSequence": "EP",
  "SequenceName": "epfid2d1_104",
  "SequenceVariant": "SK_SS",
  "SeriesDescription": "mbep2d_bold_mb2_p3_AP_2iso",
  "SeriesNumber": 30,
  "ShimSetting": [1, 2087, 40, 1507, 44, 88, 447, -102],
  "SliceThickness": 2,
  "SliceTiming": [0, 0.2275, 0.455, 0.6825, 0.91, 0.135, 0.365, 0.5925, 0.82, 0.045, 0.2725, 0.5, 0.7275, 0.9575, 0.1825, 0.41, 0.6375, 0.865, 0.09, 0.3175, 0.545, 0.775, 0, 0.2275, 0.455, 0.6825, 0.91, 0.135, 0.365, 0.5925, 0.82, 0.045, 0.2725, 0.5, 0.7275, 0.9575, 0.1825, 0.41, 0.6375, 0.865, 0.09, 0.3175, 0.545, 0.775],
  "SoftwareVersions": "syngo_MR_B17",
  "SpacingBetweenSlices": 2,
  "StationName": "MASTER",
  "TaskName": "dsp",
  "TotalReadoutTime": 0.0230033,
  "TxRefAmp": 120,
  "dcmmeta_affine": [
    [-2.0, 0.0, 0.0, 107.6319580078125],
    [0.0, 1.9785447120666504, -0.2921660542488098, -114.23896789550781],
    [0.0, 0.2921660542488098, 1.9785445928573608, -47.31913375854492],
    [0.0, 0.0, 0.0, 1.0]
],
  "dcmmeta_reorient_transform": [
    [0.0, -1.0, 0.0, 103.0],
    [1.0, 0.0, 0.0, 0.0],
    [0.0, 0.0, 1.0, 0.0],
    [0.0, 0.0, 0.0, 1.0]
],
  "dcmmeta_shape": [104, 104, 44, 330],
  "dcmmeta_slice_dim": 2,
  "dcmmeta_version": 0.6,
  "global": {
    "const": {
      "AcquisitionMatrix": [104, 0, 0, 104],
      "AngioFlag": "N",
      "BitsAllocated": 16,
      "BitsStored": 12,
      "Columns": 728,
      "EchoNumbers": 1,
      "EchoTime": 20.0,
      "EchoTrainLength": 1,
      "FlipAngle": 30.0,
      "HighBit": 11,
      "ImageOrientationPatient": [1.0, 0.0, 0.0, 0.0, 0.98927233216483, -0.1460830339675],
      "ImagePositionPatient": [-731.63196134567, -706.85706880538, 73.929785703438],
      "ImageType": [
        "ORIGINAL",
        "PRIMARY",
        "M",
        "MB",
        "ND",
        "MOSAIC"
],
      "ImagedNucleus": "1H",
      "ImagingFrequency": 297.228811,
      "InPlanePhaseEncodingDirection": "COL",
      "MRAcquisitionType": "2D",
      "MagneticFieldStrength": 6.98,
      "Manufacturer": "SIEMENS",
      "ManufacturerModelName": "Investigational_Device_7T",
      "Modality": "MR",
      "NumberOfAverages": 1.0,
      "NumberOfPhaseEncodingSteps": 91,
      "PercentPhaseFieldOfView": 100.0,
      "PercentSampling": 100.0,
      "PerformedProcedureStepStartTime": "140116.046000",
      "PhotometricInterpretation": "MONOCHROME2",
      "PixelBandwidth": 1717.0,
      "PixelRepresentation": 0,
      "PixelSpacing": [2.0, 2.0],
      "ProtocolName": "mbep2d_bold_mb2_p3_AP 2iso",
      "RepetitionTime": 1000.0,
      "Rows": 728,
      "SAR": 0.0,
      "SamplesPerPixel": 1,
      "ScanOptions": [
        "PFP",
        "FS"
],
      "ScanningSequence": "EP",
      "SequenceName": "epfid2d1_104",
      "SequenceVariant": [
        "SK",
        "SS"
],
      "SeriesDescription": "mbep2d_bold_mb2_p3_AP 2iso",
      "SeriesNumber": 30,
      "SeriesTime": "151433.406000",
      "SliceLocation": -30.123133673177,
      "SliceThickness": 2.0,
      "SmallestImagePixelValue": 0,
      "SoftwareVersions": "syngo MR B17",
      "SpacingBetweenSlices": 1.9999999702561,
      "SpecificCharacterSet": "ISO_IR 100",
      "StudyID": "1",
      "StudyTime": "140116.000000",
      "TransmitCoilName": "CFMM_8Tx32Rx",
      "VariableFlipAngleFlag": "N",
      "WindowCenterWidthExplanation": "Algo1",
      "dBdt": 0.0},
    "slices": {}
  },
  "time": {
    "samples": {
      "AcquisitionNumber": [1, 2, 3, 4, 5, 6, 7, 8, 9, 10, 11, 12, 13, 14, 15, 16, 17, 18, 19, 20, 21, 22, 23, 24, 25, 26, 27, 28, 29, 30, 31, 32, 33, 34, 35, 36, 37, 38, 39, 40, 41, 42, 43, 44, 45, 46, 47, 48, 49, 50, 51, 52, 53, 54, 55, 56, 57, 58, 59, 60, 61, 62, 63, 64, 65, 66, 67, 68, 69, 70, 71, 72, 73, 74, 75, 76, 77, 78, 79, 80, 81, 82, 83, 84, 85, 86, 87, 88, 89, 90, 91, 92, 93, 94, 95, 96, 97, 98, 99, 100, 101, 102, 103, 104, 105, 106, 107, 108, 109, 110, 111, 112, 113, 114, 115, 116, 117, 118, 119, 120, 121, 122, 123, 124, 125, 126, 127, 128, 129, 130, 131, 132, 133, 134, 135, 136, 137, 138, 139, 140, 141, 142, 143, 144, 145, 146, 147, 148, 149, 150, 151, 152, 153, 154, 155, 156, 157, 158, 159, 160, 161, 162, 163, 164, 165, 166, 167, 168, 169, 170, 171, 172, 173, 174, 175, 176, 177, 178, 179, 180, 181, 182, 183, 184, 185, 186, 187, 188, 189, 190, 191, 192, 193, 194, 195, 196, 197, 198, 199, 200, 201, 202, 203, 204, 205, 206, 207, 208, 209, 210, 211, 212, 213, 214, 215, 216, 217, 218, 219, 220, 221, 222, 223, 224, 225, 226, 227, 228, 229, 230, 231, 232, 233, 234, 235, 236, 237, 238, 239, 240, 241, 242, 243, 244, 245, 246, 247, 248, 249, 250, 251, 252, 253, 254, 255, 256, 257, 258, 259, 260, 261, 262, 263, 264, 265, 266, 267, 268, 269, 270, 271, 272, 273, 274, 275, 276, 277, 278, 279, 280, 281, 282, 283, 284, 285, 286, 287, 288, 289, 290, 291, 292, 293, 294, 295, 296, 297, 298, 299, 300, 301, 302, 303, 304, 305, 306, 307, 308, 309, 310, 311, 312, 313, 314, 315, 316, 317, 318, 319, 320, 321, 322, 323, 324, 325, 326, 327, 328, 329, 330],
      "AcquisitionTime": ["151356.397500", "151357.400000", "151358.405000", "151359.407500", "151400.412500", "151401.417500", "151402.420000", "151403.425000", "151404.427500", "151405.432500", "151406.437500", "151407.440000", "151408.445000", "151409.447500", "151410.452500", "151411.457500", "151412.460000", "151413.465000", "151414.467500", "151415.472500", "151416.477500", "151417.480000", "151418.485000", "151419.490000", "151420.492500", "151421.497500", "151422.500000", "151423.505000", "151424.510000", "151425.512500", "151426.517500", "151427.520000", "151428.525000", "151429.530000", "151430.532500", "151431.537500", "151432.540000", "151433.545000", "151434.550000", "151435.552500", "151436.557500", "151437.560000", "151438.565000", "151439.570000", "151440.572500", "151441.577500", "151442.580000", "151443.585000", "151444.590000", "151445.592500", "151446.597500", "151447.600000", "151448.605000", "151449.610000", "151450.612500", "151451.617500", "151452.622500", "151453.625000", "151454.630000", "151455.632500", "151456.637500", "151457.642500", "151458.645000", "151459.650000", "151500.652500", "151501.657500", "151502.662500", "151503.665000", "151504.670000", "151505.672500", "151506.677500", "151507.682500", "151508.685000", "151509.690000", "151510.692500", "151511.697500", "151512.702500", "151513.705000", "151514.710000", "151515.712500", "151516.717500", "151517.722500", "151518.725000", "151519.730000", "151520.732500", "151521.737500", "151522.742500", "151523.745000", "151524.750000", "151525.755000", "151526.757500", "151527.762500", "151528.765000", "151529.770000", "151530.775000", "151531.777500", "151532.782500", "151533.785000", "151534.790000", "151535.795000", "151536.797500", "151537.802500", "151538.805000", "151539.810000", "151540.815000", "151541.817500", "151542.822500", "151543.825000", "151544.830000", "151545.835000", "151546.837500", "151547.842500", "151548.845000", "151549.850000", "151550.855000", "151551.857500", "151552.862500", "151553.867500", "151554.870000", "151555.875000", "151556.877500", "151557.882500", "151558.887500", "151559.890000", "151600.895000", "151601.897500", "151602.902500", "151603.907500", "151604.910000", "151605.915000", "151606.917500", "151607.922500", "151608.927500", "151609.930000", "151610.935000", "151611.937500", "151612.942500", "151613.947500", "151614.950000", "151615.955000", "151616.957500", "151617.962500", "151618.967500", "151619.970000", "151620.975000", "151621.977500", "151622.982500", "151623.987500", "151624.990000", "151625.995000", "151627.000000", "151628.002500", "151629.007500", "151630.010000", "151631.015000", "151632.020000", "151633.022500", "151634.027500", "151635.030000", "151636.035000", "151637.040000", "151638.042500", "151639.047500", "151640.050000", "151641.055000", "151642.060000", "151643.062500", "151644.067500", "151645.070000", "151646.075000", "151647.080000", "151648.082500", "151649.087500", "151650.090000", "151651.095000", "151652.100000", "151653.102500", "151654.107500", "151655.110000", "151656.115000", "151657.120000", "151658.122500", "151659.127500", "151700.132500", "151701.135000", "151702.140000", "151703.142500", "151704.147500", "151705.152500", "151706.155000", "151707.160000", "151708.162500", "151709.167500", "151710.172500", "151711.175000", "151712.180000", "151713.182500", "151714.187500", "151715.192500", "151716.195000", "151717.200000", "151718.202500", "151719.207500", "151720.212500", "151721.215000", "151722.220000", "151723.222500", "151724.227500", "151725.232500", "151726.235000", "151727.240000", "151728.245000", "151729.247500", "151730.252500", "151731.255000", "151732.260000", "151733.265000", "151734.267500", "151735.272500", "151736.275000", "151737.280000", "151738.285000", "151739.287500", "151740.292500", "151741.295000", "151742.300000", "151743.305000", "151744.307500", "151745.312500", "151746.315000", "151747.320000", "151748.325000", "151749.327500", "151750.332500", "151751.335000", "151752.340000", "151753.345000", "151754.347500", "151755.352500", "151756.355000", "151757.360000", "151758.365000", "151759.367500", "151800.372500", "151801.377500", "151802.380000", "151803.385000", "151804.387500", "151805.392500", "151806.397500", "151807.400000", "151808.405000", "151809.407500", "151810.412500", "151811.417500", "151812.420000", "151813.425000", "151814.427500", "151815.432500", "151816.437500", "151817.440000", "151818.445000", "151819.447500", "151820.452500", "151821.457500", "151822.460000", "151823.465000", "151824.467500", "151825.472500", "151826.477500", "151827.480000", "151828.485000", "151829.490000", "151830.492500", "151831.497500", "151832.500000", "151833.505000", "151834.510000", "151835.512500", "151836.517500", "151837.520000", "151838.525000", "151839.530000", "151840.532500", "151841.537500", "151842.540000", "151843.545000", "151844.550000", "151845.552500", "151846.557500", "151847.560000", "151848.565000", "151849.570000", "151850.572500", "151851.577500", "151852.580000", "151853.585000", "151854.590000", "151855.592500", "151856.597500", "151857.600000", "151858.605000", "151859.610000", "151900.612500", "151901.617500", "151902.622500", "151903.625000", "151904.630000", "151905.632500", "151906.637500", "151907.642500", "151908.645000", "151909.650000", "151910.652500", "151911.657500", "151912.662500", "151913.665000", "151914.670000", "151915.672500", "151916.677500", "151917.682500", "151918.685000", "151919.690000", "151920.692500", "151921.697500", "151922.702500", "151923.705000", "151924.710000", "151925.712500", "151926.717500"],
      "ContentTime": ["151433.406000", "151433.406000", "151433.421000", "151433.421000", "151433.421000", "151433.421000", "151433.421000", "151433.421000", "151433.421000", "151433.437000", "151433.437000", "151433.437000", "151433.437000", "151433.437000", "151433.437000", "151433.437000", "151433.453000", "151433.453000", "151433.453000", "151433.453000", "151433.468000", "151433.468000", "151433.468000", "151433.468000", "151433.468000", "151433.468000", "151433.468000", "151433.484000", "151433.484000", "151433.484000", "151433.484000", "151433.484000", "151433.484000", "151433.484000", "151433.500000", "151453.359000", "151453.359000", "151453.375000", "151453.375000", "151453.375000", "151453.375000", "151453.375000", "151453.375000", "151453.375000", "151453.375000", "151453.390000", "151453.390000", "151453.390000", "151453.390000", "151453.390000", "151453.390000", "151453.406000", "151453.406000", "151453.406000", "151453.406000", "151513.359000", "151513.359000", "151513.375000", "151513.375000", "151513.375000", "151513.375000", "151513.375000", "151513.375000", "151513.375000", "151513.390000", "151513.390000", "151513.390000", "151513.390000", "151513.390000", "151513.406000", "151513.406000", "151513.406000", "151513.406000", "151513.406000", "151513.406000", "151533.359000", "151533.359000", "151533.375000", "151533.375000", "151533.375000", "151533.375000", "151533.375000", "151533.375000", "151533.390000", "151533.390000", "151533.390000", "151533.390000", "151533.390000", "151533.406000", "151533.406000", "151533.406000", "151533.406000", "151533.406000", "151533.406000", "151533.406000", "151553.359000", "151553.359000", "151553.375000", "151553.375000", "151553.375000", "151553.375000", "151553.375000", "151553.375000", "151553.390000", "151553.390000", "151553.390000", "151553.390000", "151553.390000", "151553.406000", "151553.406000", "151553.406000", "151553.406000", "151553.406000", "151553.406000", "151553.406000", "151613.359000", "151613.359000", "151613.375000", "151613.375000", "151613.375000", "151613.375000", "151613.375000", "151613.375000", "151613.375000", "151613.375000", "151613.390000", "151613.390000", "151613.390000", "151613.390000", "151613.390000", "151613.390000", "151613.390000", "151613.406000", "151613.406000", "151613.406000", "151633.359000", "151633.359000", "151633.375000", "151633.375000", "151633.375000", "151633.375000", "151633.375000", "151633.375000", "151633.375000", "151633.375000", "151633.390000", "151633.390000", "151633.390000", "151633.390000", "151633.390000", "151633.390000", "151633.390000", "151633.406000", "151633.406000", "151633.406000", "151653.359000", "151653.359000", "151653.375000", "151653.375000", "151653.375000", "151653.375000", "151653.375000", "151653.375000", "151653.375000", "151653.390000", "151653.390000", "151653.390000", "151653.390000", "151653.390000", "151653.390000", "151653.406000", "151653.406000", "151653.406000", "151653.406000", "151653.406000", "151713.359000", "151713.359000", "151713.375000", "151713.375000", "151713.375000", "151713.375000", "151713.375000", "151713.375000", "151713.375000", "151713.375000", "151713.390000", "151713.390000", "151713.390000", "151713.390000", "151713.390000", "151713.390000", "151713.390000", "151713.406000", "151713.406000", "151713.406000", "151733.359000", "151733.359000", "151733.375000", "151733.375000", "151733.375000", "151733.375000", "151733.375000", "151733.375000", "151733.375000", "151733.390000", "151733.390000", "151733.390000", "151733.390000", "151733.390000", "151733.390000", "151733.390000", "151733.406000", "151733.406000", "151733.406000", "151733.406000", "151753.359000", "151753.359000", "151753.375000", "151753.375000", "151753.375000", "151753.375000", "151753.375000", "151753.375000", "151753.375000", "151753.390000", "151753.390000", "151753.390000", "151753.390000", "151753.390000", "151753.390000", "151753.390000", "151753.406000", "151753.406000", "151753.406000", "151753.406000", "151813.359000", "151813.359000", "151813.375000", "151813.375000", "151813.375000", "151813.375000", "151813.375000", "151813.390000", "151813.390000", "151813.390000", "151813.390000", "151813.390000", "151813.390000", "151813.390000", "151813.406000", "151813.406000", "151813.406000", "151813.406000", "151813.421000", "151813.421000", "151833.359000", "151833.359000", "151833.375000", "151833.375000", "151833.375000", "151833.375000", "151833.375000", "151833.375000", "151833.375000", "151833.375000", "151833.390000", "151833.390000", "151833.390000", "151833.390000", "151833.390000", "151833.390000", "151833.390000", "151833.406000", "151833.406000", "151833.406000", "151853.359000", "151853.359000", "151853.359000", "151853.375000", "151853.375000", "151853.375000", "151853.375000", "151853.375000", "151853.375000", "151853.375000", "151853.390000", "151853.390000", "151853.390000", "151853.390000", "151853.390000", "151853.390000", "151853.406000", "151853.406000", "151853.406000", "151853.406000", "151913.359000", "151913.359000", "151913.375000", "151913.375000", "151913.375000", "151913.375000", "151913.375000", "151913.375000", "151913.375000", "151913.375000", "151913.390000", "151913.390000", "151913.390000", "151913.390000", "151913.390000", "151913.390000", "151913.390000", "151913.406000", "151913.406000", "151913.406000", "151932.562000", "151932.562000", "151932.562000", "151932.578000", "151932.578000", "151932.578000", "151932.578000", "151932.578000", "151932.578000", "151932.593000", "151932.593000", "151932.593000", "151932.593000", "151932.593000", "151932.609000"],
      "InstanceCreationTime": ["151433.406000", "151433.406000", "151433.421000", "151433.421000", "151433.421000", "151433.421000", "151433.421000", "151433.421000", "151433.421000", "151433.437000", "151433.437000", "151433.437000", "151433.437000", "151433.437000", "151433.437000", "151433.437000", "151433.453000", "151433.453000", "151433.453000", "151433.453000", "151433.468000", "151433.468000", "151433.468000", "151433.468000", "151433.468000", "151433.468000", "151433.468000", "151433.484000", "151433.484000", "151433.484000", "151433.484000", "151433.484000", "151433.484000", "151433.484000", "151433.500000", "151453.359000", "151453.359000", "151453.375000", "151453.375000", "151453.375000", "151453.375000", "151453.375000", "151453.375000", "151453.375000", "151453.375000", "151453.390000", "151453.390000", "151453.390000", "151453.390000", "151453.390000", "151453.390000", "151453.406000", "151453.406000", "151453.406000", "151453.406000", "151513.359000", "151513.359000", "151513.375000", "151513.375000", "151513.375000", "151513.375000", "151513.375000", "151513.375000", "151513.375000", "151513.390000", "151513.390000", "151513.390000", "151513.390000", "151513.390000", "151513.406000", "151513.406000", "151513.406000", "151513.406000", "151513.406000", "151513.406000", "151533.359000", "151533.359000", "151533.375000", "151533.375000", "151533.375000", "151533.375000", "151533.375000", "151533.375000", "151533.390000", "151533.390000", "151533.390000", "151533.390000", "151533.390000", "151533.406000", "151533.406000", "151533.406000", "151533.406000", "151533.406000", "151533.406000", "151533.406000", "151553.359000", "151553.359000", "151553.375000", "151553.375000", "151553.375000", "151553.375000", "151553.375000", "151553.375000", "151553.390000", "151553.390000", "151553.390000", "151553.390000", "151553.390000", "151553.406000", "151553.406000", "151553.406000", "151553.406000", "151553.406000", "151553.406000", "151553.406000", "151613.359000", "151613.359000", "151613.375000", "151613.375000", "151613.375000", "151613.375000", "151613.375000", "151613.375000", "151613.375000", "151613.375000", "151613.390000", "151613.390000", "151613.390000", "151613.390000", "151613.390000", "151613.390000", "151613.390000", "151613.406000", "151613.406000", "151613.406000", "151633.359000", "151633.359000", "151633.375000", "151633.375000", "151633.375000", "151633.375000", "151633.375000", "151633.375000", "151633.375000", "151633.375000", "151633.390000", "151633.390000", "151633.390000", "151633.390000", "151633.390000", "151633.390000", "151633.390000", "151633.406000", "151633.406000", "151633.406000", "151653.359000", "151653.359000", "151653.375000", "151653.375000", "151653.375000", "151653.375000", "151653.375000", "151653.375000", "151653.375000", "151653.390000", "151653.390000", "151653.390000", "151653.390000", "151653.390000", "151653.390000", "151653.406000", "151653.406000", "151653.406000", "151653.406000", "151653.406000", "151713.359000", "151713.359000", "151713.375000", "151713.375000", "151713.375000", "151713.375000", "151713.375000", "151713.375000", "151713.375000", "151713.375000", "151713.390000", "151713.390000", "151713.390000", "151713.390000", "151713.390000", "151713.390000", "151713.390000", "151713.406000", "151713.406000", "151713.406000", "151733.359000", "151733.359000", "151733.375000", "151733.375000", "151733.375000", "151733.375000", "151733.375000", "151733.375000", "151733.375000", "151733.390000", "151733.390000", "151733.390000", "151733.390000", "151733.390000", "151733.390000", "151733.390000", "151733.406000", "151733.406000", "151733.406000", "151733.406000", "151753.359000", "151753.359000", "151753.375000", "151753.375000", "151753.375000", "151753.375000", "151753.375000", "151753.375000", "151753.375000", "151753.390000", "151753.390000", "151753.390000", "151753.390000", "151753.390000", "151753.390000", "151753.390000", "151753.406000", "151753.406000", "151753.406000", "151753.406000", "151813.359000", "151813.359000", "151813.375000", "151813.375000", "151813.375000", "151813.375000", "151813.375000", "151813.390000", "151813.390000", "151813.390000", "151813.390000", "151813.390000", "151813.390000", "151813.390000", "151813.406000", "151813.406000", "151813.406000", "151813.406000", "151813.421000", "151813.421000", "151833.359000", "151833.359000", "151833.375000", "151833.375000", "151833.375000", "151833.375000", "151833.375000", "151833.375000", "151833.375000", "151833.375000", "151833.390000", "151833.390000", "151833.390000", "151833.390000", "151833.390000", "151833.390000", "151833.390000", "151833.406000", "151833.406000", "151833.406000", "151853.359000", "151853.359000", "151853.359000", "151853.375000", "151853.375000", "151853.375000", "151853.375000", "151853.375000", "151853.375000", "151853.375000", "151853.390000", "151853.390000", "151853.390000", "151853.390000", "151853.390000", "151853.390000", "151853.406000", "151853.406000", "151853.406000", "151853.406000", "151913.359000", "151913.359000", "151913.375000", "151913.375000", "151913.375000", "151913.375000", "151913.375000", "151913.375000", "151913.375000", "151913.375000", "151913.390000", "151913.390000", "151913.390000", "151913.390000", "151913.390000", "151913.390000", "151913.390000", "151913.406000", "151913.406000", "151913.406000", "151932.562000", "151932.562000", "151932.562000", "151932.578000", "151932.578000", "151932.578000", "151932.578000", "151932.578000", "151932.578000", "151932.593000", "151932.593000", "151932.593000", "151932.593000", "151932.593000", "151932.609000"],
      "InstanceNumber": [1, 2, 3, 4, 5, 6, 7, 8, 9, 10, 11, 12, 13, 14, 15, 16, 17, 18, 19, 20, 21, 22, 23, 24, 25, 26, 27, 28, 29, 30, 31, 32, 33, 34, 35, 36, 37, 38, 39, 40, 41, 42, 43, 44, 45, 46, 47, 48, 49, 50, 51, 52, 53, 54, 55, 56, 57, 58, 59, 60, 61, 62, 63, 64, 65, 66, 67, 68, 69, 70, 71, 72, 73, 74, 75, 76, 77, 78, 79, 80, 81, 82, 83, 84, 85, 86, 87, 88, 89, 90, 91, 92, 93, 94, 95, 96, 97, 98, 99, 100, 101, 102, 103, 104, 105, 106, 107, 108, 109, 110, 111, 112, 113, 114, 115, 116, 117, 118, 119, 120, 121, 122, 123, 124, 125, 126, 127, 128, 129, 130, 131, 132, 133, 134, 135, 136, 137, 138, 139, 140, 141, 142, 143, 144, 145, 146, 147, 148, 149, 150, 151, 152, 153, 154, 155, 156, 157, 158, 159, 160, 161, 162, 163, 164, 165, 166, 167, 168, 169, 170, 171, 172, 173, 174, 175, 176, 177, 178, 179, 180, 181, 182, 183, 184, 185, 186, 187, 188, 189, 190, 191, 192, 193, 194, 195, 196, 197, 198, 199, 200, 201, 202, 203, 204, 205, 206, 207, 208, 209, 210, 211, 212, 213, 214, 215, 216, 217, 218, 219, 220, 221, 222, 223, 224, 225, 226, 227, 228, 229, 230, 231, 232, 233, 234, 235, 236, 237, 238, 239, 240, 241, 242, 243, 244, 245, 246, 247, 248, 249, 250, 251, 252, 253, 254, 255, 256, 257, 258, 259, 260, 261, 262, 263, 264, 265, 266, 267, 268, 269, 270, 271, 272, 273, 274, 275, 276, 277, 278, 279, 280, 281, 282, 283, 284, 285, 286, 287, 288, 289, 290, 291, 292, 293, 294, 295, 296, 297, 298, 299, 300, 301, 302, 303, 304, 305, 306, 307, 308, 309, 310, 311, 312, 313, 314, 315, 316, 317, 318, 319, 320, 321, 322, 323, 324, 325, 326, 327, 328, 329, 330],
      "LargestImagePixelValue": [3379, 3388, 3306, 3274, 3334, 3254, 3284, 3267, 3248, 3322, 3276, 3341, 3283, 3255, 3300, 3269, 3266, 3310, 3266, 3328, 3297, 3338, 3377, 3290, 3309, 3344, 3321, 3366, 3273, 3387, 3292, 3340, 3344, 3316, 3365, 3357, 3315, 3308, 3392, 3249, 3348, 3383, 3293, 3316, 3347, 3385, 3354, 3302, 3321, 3311, 3363, 3357, 3261, 3320, 3323, 3261, 3299, 3338, 3301, 3332, 3344, 3332, 3300, 3385, 3294, 3366, 3379, 3301, 3341, 3376, 3315, 3350, 3287, 3280, 3365, 3377, 3321, 3305, 3343, 3369, 3414, 3388, 3373, 3328, 3331, 3333, 3380, 3390, 3274, 3405, 3345, 3325, 3346, 3379, 3309, 3335, 3359, 3350, 3372, 3326, 3399, 3422, 3417, 3331, 3378, 3386, 3320, 3387, 3370, 3309, 3389, 3303, 3393, 3313, 3367, 3424, 3405, 3362, 3352, 3332, 3329, 3434, 3379, 3368, 3375, 3385, 3454, 3424, 3317, 3342, 3336, 3403, 3420, 3391, 3411, 3423, 3323, 3369, 3362, 3353, 3350, 3383, 3390, 3384, 3374, 3373, 3396, 3397, 3334, 3362, 3467, 3367, 3325, 3442, 3366, 3455, 3389, 3394, 3314, 3384, 3366, 3353, 3355, 3343, 3392, 3377, 3396, 3451, 3336, 3377, 3395, 3336, 3399, 3421, 3421, 3389, 3421, 3349, 3416, 3340, 3429, 3431, 3356, 3348, 3353, 3378, 3412, 3383, 3360, 3378, 3348, 3354, 3497, 3368, 3398, 3399, 3357, 3382, 3387, 3330, 3388, 3414, 3357, 3366, 3399, 3414, 3439, 3329, 3436, 3329, 3342, 3454, 3370, 3428, 3392, 3398, 3409, 3367, 3348, 3427, 3420, 3376, 3306, 3327, 3360, 3365, 3357, 3378, 3363, 3378, 3406, 3336, 3336, 3316, 3399, 3335, 3399, 3402, 3373, 3345, 3374, 3387, 3373, 3375, 3367, 3375, 3378, 3405, 3390, 3409, 3334, 3373, 3426, 3434, 3385, 3377, 3456, 3403, 3350, 3289, 3416, 3339, 3411, 3354, 3363, 3351, 3349, 3349, 3392, 3403, 3347, 3371, 3339, 3320, 3289, 3410, 3341, 3382, 3374, 3281, 3304, 3359, 3367, 3357, 3379, 3312, 3414, 3384, 3296, 3337, 3366, 3325, 3366, 3384, 3412, 3436, 3364, 3356, 3376, 3304, 3337, 3295, 3377, 3339, 3354, 3345, 3327, 3378, 3283, 3334, 3341, 3345, 3343, 3301, 3334, 3367, 3356, 3400, 3358, 3355, 3349, 3378, 3364, 3340, 3354, 3409, 3401, 3295, 3384, 3418],
      "WindowCenter": [437.0, 437.0, 435.0, 435.0, 435.0, 432.0, 432.0, 432.0, 432.0, 434.0, 435.0, 435.0, 434.0, 433.0, 434.0, 433.0, 432.0, 433.0, 432.0, 433.0, 433.0, 433.0, 434.0, 433.0, 434.0, 434.0, 434.0, 434.0, 433.0, 433.0, 433.0, 435.0, 435.0, 436.0, 436.0, 435.0, 434.0, 433.0, 434.0, 432.0, 433.0, 434.0, 433.0, 434.0, 434.0, 435.0, 434.0, 433.0, 432.0, 432.0, 432.0, 433.0, 434.0, 435.0, 435.0, 434.0, 434.0, 433.0, 432.0, 433.0, 433.0, 434.0, 434.0, 436.0, 434.0, 435.0, 435.0, 434.0, 434.0, 435.0, 435.0, 435.0, 434.0, 434.0, 434.0, 434.0, 433.0, 433.0, 435.0, 435.0, 436.0, 435.0, 435.0, 433.0, 433.0, 432.0, 434.0, 436.0, 435.0, 437.0, 435.0, 434.0, 433.0, 434.0, 434.0, 435.0, 435.0, 435.0, 435.0, 434.0, 435.0, 436.0, 435.0, 435.0, 434.0, 434.0, 433.0, 434.0, 436.0, 436.0, 436.0, 435.0, 436.0, 434.0, 436.0, 437.0, 437.0, 436.0, 435.0, 435.0, 435.0, 437.0, 436.0, 435.0, 434.0, 434.0, 435.0, 434.0, 434.0, 434.0, 435.0, 435.0, 436.0, 435.0, 436.0, 436.0, 433.0, 434.0, 433.0, 434.0, 434.0, 435.0, 436.0, 437.0, 438.0, 438.0, 437.0, 436.0, 435.0, 435.0, 437.0, 435.0, 435.0, 437.0, 436.0, 436.0, 435.0, 436.0, 435.0, 436.0, 436.0, 436.0, 435.0, 434.0, 435.0, 434.0, 435.0, 436.0, 435.0, 436.0, 436.0, 435.0, 435.0, 436.0, 436.0, 435.0, 435.0, 434.0, 435.0, 434.0, 437.0, 437.0, 436.0, 435.0, 434.0, 435.0, 435.0, 435.0, 435.0, 435.0, 436.0, 436.0, 438.0, 435.0, 435.0, 435.0, 435.0, 435.0, 435.0, 436.0, 436.0, 436.0, 435.0, 435.0, 436.0, 435.0, 436.0, 434.0, 436.0, 434.0, 434.0, 437.0, 436.0, 437.0, 437.0, 436.0, 435.0, 434.0, 434.0, 436.0, 436.0, 436.0, 435.0, 434.0, 435.0, 434.0, 434.0, 435.0, 434.0, 436.0, 437.0, 437.0, 437.0, 436.0, 436.0, 434.0, 435.0, 435.0, 435.0, 434.0, 435.0, 437.0, 438.0, 437.0, 436.0, 436.0, 434.0, 434.0, 434.0, 435.0, 434.0, 435.0, 437.0, 439.0, 437.0, 437.0, 437.0, 435.0, 434.0, 433.0, 434.0, 433.0, 434.0, 433.0, 433.0, 433.0, 434.0, 435.0, 437.0, 437.0, 436.0, 437.0, 436.0, 436.0, 436.0, 437.0, 436.0, 436.0, 436.0, 434.0, 434.0, 435.0, 435.0, 435.0, 436.0, 435.0, 437.0, 436.0, 434.0, 434.0, 434.0, 434.0, 436.0, 435.0, 437.0, 436.0, 435.0, 435.0, 435.0, 433.0, 434.0, 434.0, 437.0, 436.0, 437.0, 437.0, 436.0, 436.0, 435.0, 436.0, 436.0, 436.0, 436.0, 435.0, 435.0, 435.0, 435.0, 436.0, 436.0, 436.0, 435.0, 435.0, 435.0, 434.0, 435.0, 435.0, 436.0, 435.0, 436.0, 437.0],
