{
  "AcquisitionMatrixPE": 104,
  "AcquisitionNumber": 1,
  "AcquisitionTime": "14:44:31.010000",
  "BandwidthPerPixelPhaseEncode": 43.054,
  "BaseResolution": 104,
  "CoilString": "C:E1_2",
  "ConversionSoftware": "dcm2niix",
  "ConversionSoftwareVersion": "v1.0.20191031",
  "DerivedVendorReportedEchoSpacing": 0.000669999,
  "DeviceSerialNumber": "18932",
  "DwellTime": 2.8e-06,
  "EchoTime": 0.02,
  "EffectiveEchoSpacing": 0.000223333,
  "FlipAngle": 30,
  "ImageComments": "Unaliased_MB2_PE2",
  "ImageOrientationPatientDICOM": [1, 0, 0, 0, 0.989272, -0.146083],
  "ImageType": [
    "ORIGINAL",
    "PRIMARY",
    "M",
    "MB",
    "ND",
    "MOSAIC"
],
  "ImagingFrequency": 297.229,
  "InPlanePhaseEncodingDirectionDICOM": "COL",
  "InstitutionAddress": "Richmond_Street_North_1151_London_409EF2_Ontario_CA_N6A_5B7",
  "InstitutionName": "Robarts_Reserch_Institute",
  "InstitutionalDepartmentName": "Department",
  "MRAcquisitionType": "2D",
  "MagneticFieldStrength": 6.98,
  "Manufacturer": "Siemens",
  "ManufacturersModelName": "Investigational_Device_7T",
  "Modality": "MR",
  "MultibandAccelerationFactor": 2,
  "ParallelReductionFactorInPlane": 3,
  "PartialFourier": 0.875,
  "PatientPosition": "HFS",
  "PercentPhaseFOV": 100,
  "PhaseEncodingDirection": "j-",
  "PhaseEncodingSteps": 91,
  "PhaseResolution": 1,
  "PixelBandwidth": 1717,
  "ProcedureStepDescription": "Diedrichsen_SeqRep4",
  "ProtocolName": "mbep2d_bold_mb2_p3_AP_2iso",
  "PulseSequenceDetails": "%CustomerSeq%_cmrr_mbep2d_bold",
  "ReceiveCoilName": "CFMM_8Tx32Rx",
  "ReconMatrixPE": 104,
  "RefLinesPE": 36,
  "RepetitionTime": 1,
  "ScanOptions": "PFP_FS",
  "ScanningSequence": "EP",
  "SequenceName": "epfid2d1_104",
  "SequenceVariant": "SK_SS",
  "SeriesDescription": "mbep2d_bold_mb2_p3_AP_2iso",
  "SeriesNumber": 19,
  "ShimSetting": [1, 2087, 40, 1507, 44, 88, 447, -102],
  "SliceThickness": 2,
  "SliceTiming": [0, 0.2275, 0.455, 0.685, 0.9125, 0.1375, 0.365, 0.5925, 0.82, 0.045, 0.2725, 0.5025, 0.73, 0.9575, 0.1825, 0.41, 0.6375, 0.8675, 0.09, 0.32, 0.5475, 0.775, 0, 0.2275, 0.455, 0.685, 0.9125, 0.1375, 0.365, 0.5925, 0.82, 0.045, 0.2725, 0.5025, 0.73, 0.9575, 0.1825, 0.41, 0.6375, 0.8675, 0.09, 0.32, 0.5475, 0.775],
  "SoftwareVersions": "syngo_MR_B17",
  "SpacingBetweenSlices": 2,
  "StationName": "MASTER",
  "TaskName": "dsp",
  "TotalReadoutTime": 0.0230033,
  "TxRefAmp": 120,
  "dcmmeta_affine": [
    [-2.0, 0.0, 0.0, 107.6319580078125],
    [0.0, 1.9785447120666504, -0.2921660542488098, -114.23896789550781],
    [0.0, 0.2921660542488098, 1.9785445928573608, -47.31913375854492],
    [0.0, 0.0, 0.0, 1.0]
],
  "dcmmeta_reorient_transform": [
    [0.0, -1.0, 0.0, 103.0],
    [1.0, 0.0, 0.0, 0.0],
    [0.0, 0.0, 1.0, 0.0],
    [0.0, 0.0, 0.0, 1.0]
],
  "dcmmeta_shape": [104, 104, 44, 330],
  "dcmmeta_slice_dim": 2,
  "dcmmeta_version": 0.6,
  "global": {
    "const": {
      "AcquisitionMatrix": [104, 0, 0, 104],
      "AngioFlag": "N",
      "BitsAllocated": 16,
      "BitsStored": 12,
      "Columns": 728,
      "EchoNumbers": 1,
      "EchoTime": 20.0,
      "EchoTrainLength": 1,
      "FlipAngle": 30.0,
      "HighBit": 11,
      "ImageOrientationPatient": [1.0, 0.0, 0.0, 0.0, 0.98927233216483, -0.1460830339675],
      "ImagePositionPatient": [-731.63196134567, -706.85706880538, 73.929785703438],
      "ImageType": [
        "ORIGINAL",
        "PRIMARY",
        "M",
        "MB",
        "ND",
        "MOSAIC"
],
      "ImagedNucleus": "1H",
      "ImagingFrequency": 297.228798,
      "InPlanePhaseEncodingDirection": "COL",
      "MRAcquisitionType": "2D",
      "MagneticFieldStrength": 6.98,
      "Manufacturer": "SIEMENS",
      "ManufacturerModelName": "Investigational_Device_7T",
      "Modality": "MR",
      "NumberOfAverages": 1.0,
      "NumberOfPhaseEncodingSteps": 91,
      "PercentPhaseFieldOfView": 100.0,
      "PercentSampling": 100.0,
      "PerformedProcedureStepStartTime": "140116.046000",
      "PhotometricInterpretation": "MONOCHROME2",
      "PixelBandwidth": 1717.0,
      "PixelRepresentation": 0,
      "PixelSpacing": [2.0, 2.0],
      "ProtocolName": "mbep2d_bold_mb2_p3_AP 2iso",
      "RepetitionTime": 1000.0,
      "Rows": 728,
      "SAR": 0.0,
      "SamplesPerPixel": 1,
      "ScanOptions": [
        "PFP",
        "FS"
],
      "ScanningSequence": "EP",
      "SequenceName": "epfid2d1_104",
      "SequenceVariant": [
        "SK",
        "SS"
],
      "SeriesDescription": "mbep2d_bold_mb2_p3_AP 2iso",
      "SeriesNumber": 19,
      "SeriesTime": "144506.093000",
      "SliceLocation": -30.123133673177,
      "SliceThickness": 2.0,
      "SmallestImagePixelValue": 0,
      "SoftwareVersions": "syngo MR B17",
      "SpacingBetweenSlices": 1.9999999702561,
      "SpecificCharacterSet": "ISO_IR 100",
      "StudyID": "1",
      "StudyTime": "140116.000000",
      "TransmitCoilName": "CFMM_8Tx32Rx",
      "VariableFlipAngleFlag": "N",
      "WindowCenterWidthExplanation": "Algo1",
      "dBdt": 0.0},
    "slices": {}
  },
  "time": {
    "samples": {
      "AcquisitionNumber": [1, 2, 3, 4, 5, 6, 7, 8, 9, 10, 11, 12, 13, 14, 15, 16, 17, 18, 19, 20, 21, 22, 23, 24, 25, 26, 27, 28, 29, 30, 31, 32, 33, 34, 35, 36, 37, 38, 39, 40, 41, 42, 43, 44, 45, 46, 47, 48, 49, 50, 51, 52, 53, 54, 55, 56, 57, 58, 59, 60, 61, 62, 63, 64, 65, 66, 67, 68, 69, 70, 71, 72, 73, 74, 75, 76, 77, 78, 79, 80, 81, 82, 83, 84, 85, 86, 87, 88, 89, 90, 91, 92, 93, 94, 95, 96, 97, 98, 99, 100, 101, 102, 103, 104, 105, 106, 107, 108, 109, 110, 111, 112, 113, 114, 115, 116, 117, 118, 119, 120, 121, 122, 123, 124, 125, 126, 127, 128, 129, 130, 131, 132, 133, 134, 135, 136, 137, 138, 139, 140, 141, 142, 143, 144, 145, 146, 147, 148, 149, 150, 151, 152, 153, 154, 155, 156, 157, 158, 159, 160, 161, 162, 163, 164, 165, 166, 167, 168, 169, 170, 171, 172, 173, 174, 175, 176, 177, 178, 179, 180, 181, 182, 183, 184, 185, 186, 187, 188, 189, 190, 191, 192, 193, 194, 195, 196, 197, 198, 199, 200, 201, 202, 203, 204, 205, 206, 207, 208, 209, 210, 211, 212, 213, 214, 215, 216, 217, 218, 219, 220, 221, 222, 223, 224, 225, 226, 227, 228, 229, 230, 231, 232, 233, 234, 235, 236, 237, 238, 239, 240, 241, 242, 243, 244, 245, 246, 247, 248, 249, 250, 251, 252, 253, 254, 255, 256, 257, 258, 259, 260, 261, 262, 263, 264, 265, 266, 267, 268, 269, 270, 271, 272, 273, 274, 275, 276, 277, 278, 279, 280, 281, 282, 283, 284, 285, 286, 287, 288, 289, 290, 291, 292, 293, 294, 295, 296, 297, 298, 299, 300, 301, 302, 303, 304, 305, 306, 307, 308, 309, 310, 311, 312, 313, 314, 315, 316, 317, 318, 319, 320, 321, 322, 323, 324, 325, 326, 327, 328, 329, 330],
      "AcquisitionTime": ["144431.010000", "144432.015000", "144433.017500", "144434.022500", "144435.025000", "144436.030000", "144437.035000", "144438.037500", "144439.042500", "144440.045000", "144441.050000", "144442.055000", "144443.057500", "144444.062500", "144445.065000", "144446.070000", "144447.075000", "144448.077500", "144449.082500", "144450.085000", "144451.090000", "144452.095000", "144453.097500", "144454.102500", "144455.105000", "144456.110000", "144457.115000", "144458.117500", "144459.122500", "144500.127500", "144501.130000", "144502.135000", "144503.137500", "144504.142500", "144505.147500", "144506.150000", "144507.155000", "144508.157500", "144509.162500", "144510.167500", "144511.170000", "144512.175000", "144513.177500", "144514.182500", "144515.187500", "144516.190000", "144517.195000", "144518.197500", "144519.202500", "144520.207500", "144521.210000", "144522.215000", "144523.217500", "144524.222500", "144525.227500", "144526.230000", "144527.235000", "144528.237500", "144529.242500", "144530.247500", "144531.250000", "144532.255000", "144533.260000", "144534.262500", "144535.267500", "144536.270000", "144537.275000", "144538.280000", "144539.282500", "144540.287500", "144541.290000", "144542.295000", "144543.300000", "144544.302500", "144545.307500", "144546.310000", "144547.315000", "144548.320000", "144549.322500", "144550.327500", "144551.330000", "144552.335000", "144553.340000", "144554.342500", "144555.347500", "144556.350000", "144557.355000", "144558.360000", "144559.362500", "144600.367500", "144601.370000", "144602.375000", "144603.380000", "144604.382500", "144605.387500", "144606.392500", "144607.395000", "144608.400000", "144609.402500", "144610.407500", "144611.412500", "144612.415000", "144613.420000", "144614.422500", "144615.427500", "144616.432500", "144617.435000", "144618.440000", "144619.442500", "144620.447500", "144621.452500", "144622.455000", "144623.460000", "144624.462500", "144625.467500", "144626.472500", "144627.475000", "144628.480000", "144629.482500", "144630.487500", "144631.492500", "144632.495000", "144633.500000", "144634.505000", "144635.507500", "144636.512500", "144637.515000", "144638.520000", "144639.525000", "144640.527500", "144641.532500", "144642.535000", "144643.540000", "144644.545000", "144645.547500", "144646.552500", "144647.555000", "144648.560000", "144649.565000", "144650.567500", "144651.572500", "144652.575000", "144653.580000", "144654.585000", "144655.587500", "144656.592500", "144657.595000", "144658.600000", "144659.605000", "144700.607500", "144701.612500", "144702.615000", "144703.620000", "144704.625000", "144705.627500", "144706.632500", "144707.637500", "144708.640000", "144709.645000", "144710.647500", "144711.652500", "144712.657500", "144713.660000", "144714.665000", "144715.667500", "144716.672500", "144717.677500", "144718.680000", "144719.685000", "144720.687500", "144721.692500", "144722.697500", "144723.700000", "144724.705000", "144725.707500", "144726.712500", "144727.717500", "144728.720000", "144729.725000", "144730.727500", "144731.732500", "144732.737500", "144733.740000", "144734.745000", "144735.750000", "144736.752500", "144737.757500", "144738.760000", "144739.765000", "144740.770000", "144741.772500", "144742.777500", "144743.780000", "144744.785000", "144745.790000", "144746.792500", "144747.797500", "144748.800000", "144749.805000", "144750.810000", "144751.812500", "144752.817500", "144753.820000", "144754.825000", "144755.830000", "144756.832500", "144757.837500", "144758.840000", "144759.845000", "144800.850000", "144801.852500", "144802.857500", "144803.860000", "144804.865000", "144805.870000", "144806.872500", "144807.877500", "144808.882500", "144809.885000", "144810.890000", "144811.892500", "144812.897500", "144813.902500", "144814.905000", "144815.910000", "144816.912500", "144817.917500", "144818.922500", "144819.925000", "144820.930000", "144821.932500", "144822.937500", "144823.942500", "144824.945000", "144825.950000", "144826.952500", "144827.957500", "144828.962500", "144829.965000", "144830.970000", "144831.972500", "144832.977500", "144833.982500", "144834.985000", "144835.990000", "144836.992500", "144837.997500", "144839.002500", "144840.005000", "144841.010000", "144842.015000", "144843.017500", "144844.022500", "144845.025000", "144846.030000", "144847.035000", "144848.037500", "144849.042500", "144850.045000", "144851.050000", "144852.055000", "144853.057500", "144854.062500", "144855.065000", "144856.070000", "144857.075000", "144858.077500", "144859.082500", "144900.085000", "144901.090000", "144902.095000", "144903.097500", "144904.102500", "144905.105000", "144906.110000", "144907.115000", "144908.117500", "144909.122500", "144910.127500", "144911.130000", "144912.135000", "144913.137500", "144914.142500", "144915.147500", "144916.150000", "144917.155000", "144918.157500", "144919.162500", "144920.167500", "144921.170000", "144922.175000", "144923.177500", "144924.182500", "144925.187500", "144926.190000", "144927.195000", "144928.197500", "144929.202500", "144930.207500", "144931.210000", "144932.215000", "144933.217500", "144934.222500", "144935.227500", "144936.230000", "144937.235000", "144938.237500", "144939.242500", "144940.247500", "144941.250000", "144942.255000", "144943.260000", "144944.262500", "144945.267500", "144946.270000", "144947.275000", "144948.280000", "144949.282500", "144950.287500", "144951.290000", "144952.295000", "144953.300000", "144954.302500", "144955.307500", "144956.310000", "144957.315000", "144958.320000", "144959.322500", "145000.327500", "145001.330000"],
      "ContentTime": ["144506.109000", "144506.109000", "144506.109000", "144506.109000", "144506.109000", "144506.109000", "144506.109000", "144506.125000", "144506.125000", "144506.125000", "144506.125000", "144506.125000", "144506.125000", "144506.125000", "144506.140000", "144506.140000", "144506.140000", "144506.140000", "144506.140000", "144506.140000", "144506.140000", "144506.140000", "144506.156000", "144506.156000", "144506.156000", "144506.156000", "144506.171000", "144506.171000", "144506.171000", "144506.171000", "144506.187000", "144506.187000", "144506.187000", "144526.062000", "144526.062000", "144526.078000", "144526.078000", "144526.078000", "144526.078000", "144526.078000", "144526.093000", "144526.093000", "144526.093000", "144526.093000", "144526.093000", "144526.093000", "144526.093000", "144526.093000", "144526.109000", "144526.109000", "144526.109000", "144526.109000", "144526.109000", "144546.062000", "144546.062000", "144546.078000", "144546.078000", "144546.078000", "144546.078000", "144546.078000", "144546.078000", "144546.078000", "144546.093000", "144546.093000", "144546.093000", "144546.093000", "144546.093000", "144546.093000", "144546.093000", "144546.109000", "144546.109000", "144546.109000", "144546.109000", "144606.062000", "144606.062000", "144606.062000", "144606.078000", "144606.078000", "144606.078000", "144606.078000", "144606.078000", "144606.078000", "144606.078000", "144606.093000", "144606.093000", "144606.093000", "144606.093000", "144606.093000", "144606.093000", "144606.093000", "144606.109000", "144606.109000", "144606.109000", "144626.062000", "144626.062000", "144626.078000", "144626.078000", "144626.078000", "144626.078000", "144626.078000", "144626.078000", "144626.078000", "144626.078000", "144626.093000", "144626.093000", "144626.093000", "144626.093000", "144626.093000", "144626.109000", "144626.109000", "144626.109000", "144626.109000", "144626.109000", "144646.062000", "144646.062000", "144646.078000", "144646.078000", "144646.078000", "144646.078000", "144646.078000", "144646.078000", "144646.078000", "144646.078000", "144646.093000", "144646.093000", "144646.093000", "144646.093000", "144646.093000", "144646.093000", "144646.109000", "144646.109000", "144646.109000", "144646.109000", "144706.062000", "144706.062000", "144706.078000", "144706.078000", "144706.078000", "144706.078000", "144706.078000", "144706.078000", "144706.078000", "144706.078000", "144706.093000", "144706.093000", "144706.093000", "144706.093000", "144706.093000", "144706.093000", "144706.093000", "144706.109000", "144706.109000", "144706.109000", "144726.062000", "144726.062000", "144726.078000", "144726.078000", "144726.078000", "144726.093000", "144726.093000", "144726.093000", "144726.093000", "144726.093000", "144726.093000", "144726.093000", "144726.093000", "144726.109000", "144726.109000", "144726.109000", "144726.109000", "144726.109000", "144726.109000", "144726.109000", "144746.062000", "144746.062000", "144746.078000", "144746.078000", "144746.078000", "144746.078000", "144746.078000", "144746.078000", "144746.078000", "144746.078000", "144746.093000", "144746.093000", "144746.093000", "144746.093000", "144746.093000", "144746.093000", "144746.093000", "144746.109000", "144746.109000", "144746.109000", "144806.062000", "144806.062000", "144806.078000", "144806.078000", "144806.078000", "144806.078000", "144806.078000", "144806.078000", "144806.078000", "144806.078000", "144806.093000", "144806.093000", "144806.093000", "144806.093000", "144806.093000", "144806.109000", "144806.109000", "144806.109000", "144806.109000", "144806.109000", "144826.062000", "144826.062000", "144826.078000", "144826.078000", "144826.078000", "144826.078000", "144826.078000", "144826.078000", "144826.078000", "144826.093000", "144826.093000", "144826.093000", "144826.093000", "144826.093000", "144826.093000", "144826.109000", "144826.109000", "144826.109000", "144826.109000", "144826.109000", "144846.062000", "144846.062000", "144846.078000", "144846.078000", "144846.078000", "144846.078000", "144846.078000", "144846.078000", "144846.078000", "144846.093000", "144846.093000", "144846.093000", "144846.093000", "144846.093000", "144846.093000", "144846.093000", "144846.109000", "144846.109000", "144846.109000", "144846.109000", "144906.062000", "144906.062000", "144906.078000", "144906.078000", "144906.078000", "144906.078000", "144906.078000", "144906.078000", "144906.078000", "144906.078000", "144906.093000", "144906.093000", "144906.093000", "144906.093000", "144906.093000", "144906.093000", "144906.093000", "144906.109000", "144906.109000", "144906.109000", "144926.062000", "144926.062000", "144926.078000", "144926.078000", "144926.078000", "144926.078000", "144926.078000", "144926.078000", "144926.078000", "144926.078000", "144926.093000", "144926.093000", "144926.093000", "144926.093000", "144926.093000", "144926.093000", "144926.109000", "144926.109000", "144926.109000", "144926.109000", "144946.062000", "144946.062000", "144946.078000", "144946.078000", "144946.078000", "144946.078000", "144946.078000", "144946.078000", "144946.078000", "144946.093000", "144946.093000", "144946.093000", "144946.093000", "144946.093000", "144946.109000", "144946.109000", "144946.109000", "144946.109000", "144946.109000", "144946.109000", "145007.218000", "145007.218000", "145007.218000", "145007.234000", "145007.234000", "145007.234000", "145007.234000", "145007.250000", "145007.250000", "145007.250000", "145007.250000", "145007.250000", "145007.250000", "145007.250000", "145007.265000", "145007.265000", "145007.265000"],
      "InstanceCreationTime": ["144506.109000", "144506.109000", "144506.109000", "144506.109000", "144506.109000", "144506.109000", "144506.109000", "144506.125000", "144506.125000", "144506.125000", "144506.125000", "144506.125000", "144506.125000", "144506.125000", "144506.140000", "144506.140000", "144506.140000", "144506.140000", "144506.140000", "144506.140000", "144506.140000", "144506.140000", "144506.156000", "144506.156000", "144506.156000", "144506.156000", "144506.171000", "144506.171000", "144506.171000", "144506.171000", "144506.187000", "144506.187000", "144506.187000", "144526.062000", "144526.062000", "144526.078000", "144526.078000", "144526.078000", "144526.078000", "144526.078000", "144526.093000", "144526.093000", "144526.093000", "144526.093000", "144526.093000", "144526.093000", "144526.093000", "144526.093000", "144526.109000", "144526.109000", "144526.109000", "144526.109000", "144526.109000", "144546.062000", "144546.062000", "144546.078000", "144546.078000", "144546.078000", "144546.078000", "144546.078000", "144546.078000", "144546.078000", "144546.093000", "144546.093000", "144546.093000", "144546.093000", "144546.093000", "144546.093000", "144546.093000", "144546.109000", "144546.109000", "144546.109000", "144546.109000", "144606.062000", "144606.062000", "144606.062000", "144606.078000", "144606.078000", "144606.078000", "144606.078000", "144606.078000", "144606.078000", "144606.078000", "144606.093000", "144606.093000", "144606.093000", "144606.093000", "144606.093000", "144606.093000", "144606.093000", "144606.109000", "144606.109000", "144606.109000", "144626.062000", "144626.062000", "144626.078000", "144626.078000", "144626.078000", "144626.078000", "144626.078000", "144626.078000", "144626.078000", "144626.078000", "144626.093000", "144626.093000", "144626.093000", "144626.093000", "144626.093000", "144626.109000", "144626.109000", "144626.109000", "144626.109000", "144626.109000", "144646.062000", "144646.062000", "144646.078000", "144646.078000", "144646.078000", "144646.078000", "144646.078000", "144646.078000", "144646.078000", "144646.078000", "144646.093000", "144646.093000", "144646.093000", "144646.093000", "144646.093000", "144646.093000", "144646.109000", "144646.109000", "144646.109000", "144646.109000", "144706.062000", "144706.062000", "144706.078000", "144706.078000", "144706.078000", "144706.078000", "144706.078000", "144706.078000", "144706.078000", "144706.078000", "144706.093000", "144706.093000", "144706.093000", "144706.093000", "144706.093000", "144706.093000", "144706.093000", "144706.109000", "144706.109000", "144706.109000", "144726.062000", "144726.062000", "144726.078000", "144726.078000", "144726.078000", "144726.093000", "144726.093000", "144726.093000", "144726.093000", "144726.093000", "144726.093000", "144726.093000", "144726.093000", "144726.109000", "144726.109000", "144726.109000", "144726.109000", "144726.109000", "144726.109000", "144726.109000", "144746.062000", "144746.062000", "144746.078000", "144746.078000", "144746.078000", "144746.078000", "144746.078000", "144746.078000", "144746.078000", "144746.078000", "144746.093000", "144746.093000", "144746.093000", "144746.093000", "144746.093000", "144746.093000", "144746.093000", "144746.109000", "144746.109000", "144746.109000", "144806.062000", "144806.062000", "144806.078000", "144806.078000", "144806.078000", "144806.078000", "144806.078000", "144806.078000", "144806.078000", "144806.078000", "144806.093000", "144806.093000", "144806.093000", "144806.093000", "144806.093000", "144806.109000", "144806.109000", "144806.109000", "144806.109000", "144806.109000", "144826.062000", "144826.062000", "144826.078000", "144826.078000", "144826.078000", "144826.078000", "144826.078000", "144826.078000", "144826.078000", "144826.093000", "144826.093000", "144826.093000", "144826.093000", "144826.093000", "144826.093000", "144826.109000", "144826.109000", "144826.109000", "144826.109000", "144826.109000", "144846.062000", "144846.062000", "144846.078000", "144846.078000", "144846.078000", "144846.078000", "144846.078000", "144846.078000", "144846.078000", "144846.093000", "144846.093000", "144846.093000", "144846.093000", "144846.093000", "144846.093000", "144846.093000", "144846.109000", "144846.109000", "144846.109000", "144846.109000", "144906.062000", "144906.062000", "144906.078000", "144906.078000", "144906.078000", "144906.078000", "144906.078000", "144906.078000", "144906.078000", "144906.078000", "144906.093000", "144906.093000", "144906.093000", "144906.093000", "144906.093000", "144906.093000", "144906.093000", "144906.109000", "144906.109000", "144906.109000", "144926.062000", "144926.062000", "144926.078000", "144926.078000", "144926.078000", "144926.078000", "144926.078000", "144926.078000", "144926.078000", "144926.078000", "144926.093000", "144926.093000", "144926.093000", "144926.093000", "144926.093000", "144926.093000", "144926.109000", "144926.109000", "144926.109000", "144926.109000", "144946.062000", "144946.062000", "144946.078000", "144946.078000", "144946.078000", "144946.078000", "144946.078000", "144946.078000", "144946.078000", "144946.093000", "144946.093000", "144946.093000", "144946.093000", "144946.093000", "144946.109000", "144946.109000", "144946.109000", "144946.109000", "144946.109000", "144946.109000", "145007.218000", "145007.218000", "145007.218000", "145007.234000", "145007.234000", "145007.234000", "145007.234000", "145007.250000", "145007.250000", "145007.250000", "145007.250000", "145007.250000", "145007.250000", "145007.250000", "145007.265000", "145007.265000", "145007.265000"],
      "InstanceNumber": [1, 2, 3, 4, 5, 6, 7, 8, 9, 10, 11, 12, 13, 14, 15, 16, 17, 18, 19, 20, 21, 22, 23, 24, 25, 26, 27, 28, 29, 30, 31, 32, 33, 34, 35, 36, 37, 38, 39, 40, 41, 42, 43, 44, 45, 46, 47, 48, 49, 50, 51, 52, 53, 54, 55, 56, 57, 58, 59, 60, 61, 62, 63, 64, 65, 66, 67, 68, 69, 70, 71, 72, 73, 74, 75, 76, 77, 78, 79, 80, 81, 82, 83, 84, 85, 86, 87, 88, 89, 90, 91, 92, 93, 94, 95, 96, 97, 98, 99, 100, 101, 102, 103, 104, 105, 106, 107, 108, 109, 110, 111, 112, 113, 114, 115, 116, 117, 118, 119, 120, 121, 122, 123, 124, 125, 126, 127, 128, 129, 130, 131, 132, 133, 134, 135, 136, 137, 138, 139, 140, 141, 142, 143, 144, 145, 146, 147, 148, 149, 150, 151, 152, 153, 154, 155, 156, 157, 158, 159, 160, 161, 162, 163, 164, 165, 166, 167, 168, 169, 170, 171, 172, 173, 174, 175, 176, 177, 178, 179, 180, 181, 182, 183, 184, 185, 186, 187, 188, 189, 190, 191, 192, 193, 194, 195, 196, 197, 198, 199, 200, 201, 202, 203, 204, 205, 206, 207, 208, 209, 210, 211, 212, 213, 214, 215, 216, 217, 218, 219, 220, 221, 222, 223, 224, 225, 226, 227, 228, 229, 230, 231, 232, 233, 234, 235, 236, 237, 238, 239, 240, 241, 242, 243, 244, 245, 246, 247, 248, 249, 250, 251, 252, 253, 254, 255, 256, 257, 258, 259, 260, 261, 262, 263, 264, 265, 266, 267, 268, 269, 270, 271, 272, 273, 274, 275, 276, 277, 278, 279, 280, 281, 282, 283, 284, 285, 286, 287, 288, 289, 290, 291, 292, 293, 294, 295, 296, 297, 298, 299, 300, 301, 302, 303, 304, 305, 306, 307, 308, 309, 310, 311, 312, 313, 314, 315, 316, 317, 318, 319, 320, 321, 322, 323, 324, 325, 326, 327, 328, 329, 330],
      "LargestImagePixelValue": [3389, 3371, 3330, 3333, 3316, 3349, 3308, 3251, 3311, 3259, 3366, 3338, 3278, 3326, 3308, 3255, 3242, 3310, 3302, 3340, 3351, 3331, 3329, 3286, 3337, 3338, 3289, 3317, 3292, 3319, 3323, 3298, 3318, 3344, 3240, 3284, 3314, 3333, 3309, 3317, 3354, 3291, 3301, 3333, 3251, 3271, 3333, 3321, 3313, 3311, 3369, 3269, 3332, 3269, 3250, 3262, 3280, 3306, 3257, 3295, 3343, 3284, 3247, 3361, 3277, 3300, 3207, 3224, 3237, 3214, 3249, 3335, 3224, 3298, 3292, 3290, 3319, 3280, 3289, 3312, 3258, 3241, 3262, 3299, 3320, 3333, 3318, 3240, 3231, 3271, 3248, 3201, 3246, 3210, 3239, 3304, 3226, 3283, 3307, 3330, 3322, 3275, 3233, 3285, 3320, 3266, 3287, 3278, 3256, 3238, 3260, 3286, 3268, 3272, 3286, 3310, 3281, 3278, 3318, 3293, 3344, 3300, 3312, 3284, 3250, 3330, 3318, 3271, 3319, 3311, 3293, 3239, 3277, 3313, 3294, 3285, 3267, 3271, 3265, 3269, 3349, 3266, 3250, 3302, 3259, 3308, 3292, 3265, 3322, 3313, 3328, 3363, 3323, 3250, 3278, 3274, 3357, 3251, 3292, 3311, 3227, 3292, 3293, 3293, 3303, 3257, 3284, 3324, 3356, 3317, 3350, 3300, 3272, 3303, 3286, 3317, 3334, 3232, 3272, 3271, 3314, 3267, 3340, 3284, 3318, 3330, 3274, 3231, 3330, 3247, 3304, 3386, 3276, 3261, 3342, 3288, 3307, 3330, 3310, 3260, 3314, 3259, 3315, 3295, 3244, 3322, 3318, 3265, 3344, 3305, 3233, 3317, 3369, 3302, 3306, 3363, 3347, 3325, 3265, 3262, 3266, 3331, 3268, 3354, 3301, 3298, 3298, 3235, 3296, 3269, 3293, 3314, 3309, 3341, 3309, 3296, 3359, 3259, 3302, 3277, 3291, 3288, 3271, 3317, 3348, 3333, 3313, 3307, 3322, 3290, 3331, 3237, 3281, 3262, 3240, 3271, 3248, 3255, 3314, 3287, 3304, 3321, 3262, 3323, 3280, 3260, 3283, 3308, 3359, 3323, 3323, 3323, 3265, 3279, 3278, 3313, 3434, 3329, 3335, 3377, 3303, 3316, 3301, 3278, 3278, 3333, 3334, 3379, 3376, 3350, 3327, 3357, 3357, 3288, 3291, 3339, 3316, 3378, 3348, 3337, 3327, 3349, 3336, 3314, 3321, 3284, 3295, 3290, 3327, 3279, 3337, 3301, 3361, 3355, 3277, 3339, 3368, 3325, 3344, 3301, 3297, 3378, 3277, 3339, 3377, 3331, 3354, 3363, 3255, 3254],
      "WindowCenter": [438.0, 437.0, 436.0, 436.0, 436.0, 435.0, 434.0, 433.0, 435.0, 434.0, 435.0, 435.0, 434.0, 435.0, 436.0, 435.0, 433.0, 434.0, 433.0, 434.0, 436.0, 436.0, 436.0, 436.0, 436.0, 436.0, 435.0, 436.0, 435.0, 436.0, 435.0, 435.0, 435.0, 437.0, 437.0, 436.0, 437.0, 436.0, 436.0, 435.0, 436.0, 436.0, 436.0, 436.0, 435.0, 434.0, 435.0, 434.0, 434.0, 436.0, 438.0, 437.0, 438.0, 436.0, 435.0, 435.0, 434.0, 435.0, 436.0, 436.0, 436.0, 435.0, 435.0, 436.0, 435.0, 436.0, 434.0, 434.0, 435.0, 433.0, 434.0, 437.0, 436.0, 437.0, 437.0, 435.0, 435.0, 435.0, 434.0, 436.0, 434.0, 433.0, 434.0, 435.0, 437.0, 437.0, 437.0, 436.0, 435.0, 435.0, 435.0, 433.0, 435.0, 434.0, 435.0, 435.0, 433.0, 434.0, 435.0, 436.0, 436.0, 435.0, 434.0, 434.0, 434.0, 433.0, 434.0, 435.0, 435.0, 435.0, 436.0, 435.0, 435.0, 435.0, 435.0, 436.0, 435.0, 435.0, 435.0, 434.0, 436.0, 436.0, 435.0, 434.0, 433.0, 435.0, 435.0, 436.0, 436.0, 436.0, 435.0, 435.0, 436.0, 436.0, 434.0, 435.0, 434.0, 435.0, 435.0, 435.0, 436.0, 435.0, 435.0, 435.0, 434.0, 434.0, 433.0, 433.0, 435.0, 436.0, 436.0, 437.0, 437.0, 435.0, 434.0, 434.0, 436.0, 435.0, 436.0, 436.0, 435.0, 435.0, 435.0, 435.0, 434.0, 433.0, 433.0, 434.0, 436.0, 437.0, 438.0, 437.0, 436.0, 435.0, 435.0, 434.0, 435.0, 435.0, 435.0, 435.0, 435.0, 434.0, 435.0, 434.0, 435.0, 436.0, 436.0, 436.0, 437.0, 435.0, 435.0, 436.0, 435.0, 435.0, 436.0, 435.0, 435.0, 436.0, 436.0, 435.0, 435.0, 435.0, 436.0, 436.0, 435.0, 436.0, 436.0, 435.0, 436.0, 436.0, 435.0, 435.0, 434.0, 433.0, 434.0, 434.0, 436.0, 437.0, 436.0, 435.0, 435.0, 436.0, 435.0, 436.0, 436.0, 437.0, 437.0, 437.0, 437.0, 436.0, 435.0, 435.0, 434.0, 436.0, 436.0, 435.0, 436.0, 435.0, 435.0, 435.0, 435.0, 435.0, 435.0, 436.0, 437.0, 438.0, 437.0, 436.0, 436.0, 435.0, 436.0, 436.0, 438.0, 438.0, 438.0, 438.0, 436.0, 434.0, 435.0, 435.0, 435.0, 436.0, 435.0, 435.0, 435.0, 434.0, 434.0, 434.0, 434.0, 436.0, 436.0, 436.0, 436.0, 436.0, 435.0, 435.0, 437.0, 435.0, 436.0, 437.0, 436.0, 436.0, 436.0, 435.0, 434.0, 434.0, 435.0, 437.0, 438.0, 439.0, 439.0, 440.0, 440.0, 438.0, 437.0, 436.0, 436.0, 436.0, 435.0, 436.0, 436.0, 437.0, 438.0, 437.0, 438.0, 438.0, 437.0, 437.0, 436.0, 435.0, 436.0, 436.0, 436.0, 436.0, 435.0, 436.0, 436.0, 436.0, 437.0, 437.0, 437.0, 437.0, 436.0, 436.0, 436.0, 436.0, 436.0, 437.0, 436.0, 436.0],
