{
  "AcquisitionMatrixPE": 104,
  "AcquisitionNumber": 1,
  "AcquisitionTime": "14:38:8.862500",
  "BandwidthPerPixelPhaseEncode": 43.054,
  "BaseResolution": 104,
  "CoilString": "C:E1_2",
  "ConversionSoftware": "dcm2niix",
  "ConversionSoftwareVersion": "v1.0.20191031",
  "DerivedVendorReportedEchoSpacing": 0.000669999,
  "DeviceSerialNumber": "18932",
  "DwellTime": 2.8e-06,
  "EchoTime": 0.02,
  "EffectiveEchoSpacing": 0.000223333,
  "FlipAngle": 30,
  "ImageComments": "Unaliased_MB2_PE2",
  "ImageOrientationPatientDICOM": [1, 0, 0, 0, 0.989272, -0.146083],
  "ImageType": [
    "ORIGINAL",
    "PRIMARY",
    "M",
    "MB",
    "ND",
    "MOSAIC"
],
  "ImagingFrequency": 297.229,
  "InPlanePhaseEncodingDirectionDICOM": "COL",
  "InstitutionAddress": "Richmond_Street_North_1151_London_409EF2_Ontario_CA_N6A_5B7",
  "InstitutionName": "Robarts_Reserch_Institute",
  "InstitutionalDepartmentName": "Department",
  "MRAcquisitionType": "2D",
  "MagneticFieldStrength": 6.98,
  "Manufacturer": "Siemens",
  "ManufacturersModelName": "Investigational_Device_7T",
  "Modality": "MR",
  "MultibandAccelerationFactor": 2,
  "ParallelReductionFactorInPlane": 3,
  "PartialFourier": 0.875,
  "PatientPosition": "HFS",
  "PercentPhaseFOV": 100,
  "PhaseEncodingDirection": "j-",
  "PhaseEncodingSteps": 91,
  "PhaseResolution": 1,
  "PixelBandwidth": 1717,
  "ProcedureStepDescription": "Diedrichsen_SeqRep4",
  "ProtocolName": "mbep2d_bold_mb2_p3_AP_2iso",
  "PulseSequenceDetails": "%CustomerSeq%_cmrr_mbep2d_bold",
  "ReceiveCoilName": "CFMM_8Tx32Rx",
  "ReconMatrixPE": 104,
  "RefLinesPE": 36,
  "RepetitionTime": 1,
  "ScanOptions": "PFP_FS",
  "ScanningSequence": "EP",
  "SequenceName": "epfid2d1_104",
  "SequenceVariant": "SK_SS",
  "SeriesDescription": "mbep2d_bold_mb2_p3_AP_2iso",
  "SeriesNumber": 17,
  "ShimSetting": [1, 2087, 40, 1507, 44, 88, 447, -102],
  "SliceThickness": 2,
  "SliceTiming": [0, 0.2275, 0.455, 0.6825, 0.91, 0.135, 0.365, 0.5925, 0.82, 0.045, 0.2725, 0.5, 0.7275, 0.9575, 0.1825, 0.41, 0.6375, 0.865, 0.09, 0.3175, 0.545, 0.775, 0, 0.2275, 0.455, 0.6825, 0.91, 0.135, 0.365, 0.5925, 0.82, 0.045, 0.2725, 0.5, 0.7275, 0.9575, 0.1825, 0.41, 0.6375, 0.865, 0.09, 0.3175, 0.545, 0.775],
  "SoftwareVersions": "syngo_MR_B17",
  "SpacingBetweenSlices": 2,
  "StationName": "MASTER",
  "TaskName": "dsp",
  "TotalReadoutTime": 0.0230033,
  "TxRefAmp": 120,
  "dcmmeta_affine": [
    [-2.0, 0.0, 0.0, 107.6319580078125],
    [0.0, 1.9785447120666504, -0.2921660542488098, -114.23896789550781],
    [0.0, 0.2921660542488098, 1.9785445928573608, -47.31913375854492],
    [0.0, 0.0, 0.0, 1.0]
],
  "dcmmeta_reorient_transform": [
    [0.0, -1.0, 0.0, 103.0],
    [1.0, 0.0, 0.0, 0.0],
    [0.0, 0.0, 1.0, 0.0],
    [0.0, 0.0, 0.0, 1.0]
],
  "dcmmeta_shape": [104, 104, 44, 330],
  "dcmmeta_slice_dim": 2,
  "dcmmeta_version": 0.6,
  "global": {
    "const": {
      "AcquisitionMatrix": [104, 0, 0, 104],
      "AngioFlag": "N",
      "BitsAllocated": 16,
      "BitsStored": 12,
      "Columns": 728,
      "EchoNumbers": 1,
      "EchoTime": 20.0,
      "EchoTrainLength": 1,
      "FlipAngle": 30.0,
      "HighBit": 11,
      "ImageOrientationPatient": [1.0, 0.0, 0.0, 0.0, 0.98927233216483, -0.1460830339675],
      "ImagePositionPatient": [-731.63196134567, -706.85706880538, 73.929785703438],
      "ImageType": [
        "ORIGINAL",
        "PRIMARY",
        "M",
        "MB",
        "ND",
        "MOSAIC"
],
      "ImagedNucleus": "1H",
      "ImagingFrequency": 297.22879,
      "InPlanePhaseEncodingDirection": "COL",
      "MRAcquisitionType": "2D",
      "MagneticFieldStrength": 6.98,
      "Manufacturer": "SIEMENS",
      "ManufacturerModelName": "Investigational_Device_7T",
      "Modality": "MR",
      "NumberOfAverages": 1.0,
      "NumberOfPhaseEncodingSteps": 91,
      "PercentPhaseFieldOfView": 100.0,
      "PercentSampling": 100.0,
      "PerformedProcedureStepStartTime": "140116.046000",
      "PhotometricInterpretation": "MONOCHROME2",
      "PixelBandwidth": 1717.0,
      "PixelRepresentation": 0,
      "PixelSpacing": [2.0, 2.0],
      "ProtocolName": "mbep2d_bold_mb2_p3_AP 2iso",
      "RepetitionTime": 1000.0,
      "Rows": 728,
      "SAR": 0.0,
      "SamplesPerPixel": 1,
      "ScanOptions": [
        "PFP",
        "FS"
],
      "ScanningSequence": "EP",
      "SequenceName": "epfid2d1_104",
      "SequenceVariant": [
        "SK",
        "SS"
],
      "SeriesDescription": "mbep2d_bold_mb2_p3_AP 2iso",
      "SeriesNumber": 17,
      "SeriesTime": "143840.187000",
      "SliceLocation": -30.123133673177,
      "SliceThickness": 2.0,
      "SmallestImagePixelValue": 0,
      "SoftwareVersions": "syngo MR B17",
      "SpacingBetweenSlices": 1.9999999702561,
      "SpecificCharacterSet": "ISO_IR 100",
      "StudyID": "1",
      "StudyTime": "140116.000000",
      "TransmitCoilName": "CFMM_8Tx32Rx",
      "VariableFlipAngleFlag": "N",
      "WindowCenterWidthExplanation": "Algo1",
      "dBdt": 0.0},
    "slices": {}
  },
  "time": {
    "samples": {
      "AcquisitionNumber": [1, 2, 3, 4, 5, 6, 7, 8, 9, 10, 11, 12, 13, 14, 15, 16, 17, 18, 19, 20, 21, 22, 23, 24, 25, 26, 27, 28, 29, 30, 31, 32, 33, 34, 35, 36, 37, 38, 39, 40, 41, 42, 43, 44, 45, 46, 47, 48, 49, 50, 51, 52, 53, 54, 55, 56, 57, 58, 59, 60, 61, 62, 63, 64, 65, 66, 67, 68, 69, 70, 71, 72, 73, 74, 75, 76, 77, 78, 79, 80, 81, 82, 83, 84, 85, 86, 87, 88, 89, 90, 91, 92, 93, 94, 95, 96, 97, 98, 99, 100, 101, 102, 103, 104, 105, 106, 107, 108, 109, 110, 111, 112, 113, 114, 115, 116, 117, 118, 119, 120, 121, 122, 123, 124, 125, 126, 127, 128, 129, 130, 131, 132, 133, 134, 135, 136, 137, 138, 139, 140, 141, 142, 143, 144, 145, 146, 147, 148, 149, 150, 151, 152, 153, 154, 155, 156, 157, 158, 159, 160, 161, 162, 163, 164, 165, 166, 167, 168, 169, 170, 171, 172, 173, 174, 175, 176, 177, 178, 179, 180, 181, 182, 183, 184, 185, 186, 187, 188, 189, 190, 191, 192, 193, 194, 195, 196, 197, 198, 199, 200, 201, 202, 203, 204, 205, 206, 207, 208, 209, 210, 211, 212, 213, 214, 215, 216, 217, 218, 219, 220, 221, 222, 223, 224, 225, 226, 227, 228, 229, 230, 231, 232, 233, 234, 235, 236, 237, 238, 239, 240, 241, 242, 243, 244, 245, 246, 247, 248, 249, 250, 251, 252, 253, 254, 255, 256, 257, 258, 259, 260, 261, 262, 263, 264, 265, 266, 267, 268, 269, 270, 271, 272, 273, 274, 275, 276, 277, 278, 279, 280, 281, 282, 283, 284, 285, 286, 287, 288, 289, 290, 291, 292, 293, 294, 295, 296, 297, 298, 299, 300, 301, 302, 303, 304, 305, 306, 307, 308, 309, 310, 311, 312, 313, 314, 315, 316, 317, 318, 319, 320, 321, 322, 323, 324, 325, 326, 327, 328, 329, 330],
      "AcquisitionTime": ["143808.862500", "143809.865000", "143810.870000", "143811.872500", "143812.877500", "143813.882500", "143814.885000", "143815.890000", "143816.892500", "143817.897500", "143818.902500", "143819.905000", "143820.910000", "143821.912500", "143822.917500", "143823.922500", "143824.925000", "143825.930000", "143826.932500", "143827.937500", "143828.942500", "143829.945000", "143830.950000", "143831.952500", "143832.957500", "143833.962500", "143834.965000", "143835.970000", "143836.975000", "143837.977500", "143838.982500", "143839.985000", "143840.990000", "143841.995000", "143842.997500", "143844.002500", "143845.005000", "143846.010000", "143847.015000", "143848.017500", "143849.022500", "143850.025000", "143851.030000", "143852.035000", "143853.037500", "143854.042500", "143855.045000", "143856.050000", "143857.055000", "143858.057500", "143859.062500", "143900.065000", "143901.070000", "143902.075000", "143903.077500", "143904.082500", "143905.087500", "143906.090000", "143907.095000", "143908.097500", "143909.102500", "143910.107500", "143911.110000", "143912.115000", "143913.117500", "143914.122500", "143915.127500", "143916.130000", "143917.135000", "143918.137500", "143919.142500", "143920.147500", "143921.150000", "143922.155000", "143923.157500", "143924.162500", "143925.167500", "143926.170000", "143927.175000", "143928.177500", "143929.182500", "143930.187500", "143931.190000", "143932.195000", "143933.197500", "143934.202500", "143935.207500", "143936.210000", "143937.215000", "143938.220000", "143939.222500", "143940.227500", "143941.230000", "143942.235000", "143943.240000", "143944.242500", "143945.247500", "143946.250000", "143947.255000", "143948.260000", "143949.262500", "143950.267500", "143951.270000", "143952.275000", "143953.280000", "143954.282500", "143955.287500", "143956.290000", "143957.295000", "143958.300000", "143959.302500", "144000.307500", "144001.310000", "144002.315000", "144003.320000", "144004.322500", "144005.327500", "144006.330000", "144007.335000", "144008.340000", "144009.342500", "144010.347500", "144011.352500", "144012.355000", "144013.360000", "144014.362500", "144015.367500", "144016.372500", "144017.375000", "144018.380000", "144019.382500", "144020.387500", "144021.392500", "144022.395000", "144023.400000", "144024.402500", "144025.407500", "144026.412500", "144027.415000", "144028.420000", "144029.422500", "144030.427500", "144031.432500", "144032.435000", "144033.440000", "144034.442500", "144035.447500", "144036.452500", "144037.455000", "144038.460000", "144039.465000", "144040.467500", "144041.472500", "144042.475000", "144043.480000", "144044.485000", "144045.487500", "144046.492500", "144047.495000", "144048.500000", "144049.505000", "144050.507500", "144051.512500", "144052.515000", "144053.520000", "144054.525000", "144055.527500", "144056.532500", "144057.535000", "144058.540000", "144059.545000", "144100.547500", "144101.552500", "144102.555000", "144103.560000", "144104.565000", "144105.567500", "144106.572500", "144107.575000", "144108.580000", "144109.585000", "144110.587500", "144111.592500", "144112.597500", "144113.600000", "144114.605000", "144115.607500", "144116.612500", "144117.617500", "144118.620000", "144119.625000", "144120.627500", "144121.632500", "144122.637500", "144123.640000", "144124.645000", "144125.647500", "144126.652500", "144127.657500", "144128.660000", "144129.665000", "144130.667500", "144131.672500", "144132.677500", "144133.680000", "144134.685000", "144135.687500", "144136.692500", "144137.697500", "144138.700000", "144139.705000", "144140.710000", "144141.712500", "144142.717500", "144143.720000", "144144.725000", "144145.730000", "144146.732500", "144147.737500", "144148.740000", "144149.745000", "144150.750000", "144151.752500", "144152.757500", "144153.760000", "144154.765000", "144155.770000", "144156.772500", "144157.777500", "144158.780000", "144159.785000", "144200.790000", "144201.792500", "144202.797500", "144203.800000", "144204.805000", "144205.810000", "144206.812500", "144207.817500", "144208.820000", "144209.825000", "144210.830000", "144211.832500", "144212.837500", "144213.842500", "144214.845000", "144215.850000", "144216.852500", "144217.857500", "144218.862500", "144219.865000", "144220.870000", "144221.872500", "144222.877500", "144223.882500", "144224.885000", "144225.890000", "144226.892500", "144227.897500", "144228.902500", "144229.905000", "144230.910000", "144231.912500", "144232.917500", "144233.922500", "144234.925000", "144235.930000", "144236.932500", "144237.937500", "144238.942500", "144239.945000", "144240.950000", "144241.952500", "144242.957500", "144243.962500", "144244.965000", "144245.970000", "144246.975000", "144247.977500", "144248.982500", "144249.985000", "144250.990000", "144251.995000", "144252.997500", "144254.002500", "144255.005000", "144256.010000", "144257.015000", "144258.017500", "144259.022500", "144300.025000", "144301.030000", "144302.035000", "144303.037500", "144304.042500", "144305.045000", "144306.050000", "144307.055000", "144308.057500", "144309.062500", "144310.065000", "144311.070000", "144312.075000", "144313.077500", "144314.082500", "144315.087500", "144316.090000", "144317.095000", "144318.097500", "144319.102500", "144320.107500", "144321.110000", "144322.115000", "144323.117500", "144324.122500", "144325.127500", "144326.130000", "144327.135000", "144328.137500", "144329.142500", "144330.147500", "144331.150000", "144332.155000", "144333.157500", "144334.162500", "144335.167500", "144336.170000", "144337.175000", "144338.177500", "144339.182500"],
      "ContentTime": ["143840.203000", "143840.203000", "143840.203000", "143840.203000", "143840.203000", "143840.203000", "143840.218000", "143840.218000", "143840.218000", "143840.218000", "143840.218000", "143840.234000", "143840.234000", "143840.234000", "143840.234000", "143840.234000", "143840.234000", "143840.250000", "143840.250000", "143840.250000", "143840.250000", "143840.250000", "143840.250000", "143840.250000", "143840.265000", "143840.265000", "143840.265000", "143840.265000", "143840.265000", "143840.265000", "143840.265000", "143900.156000", "143900.156000", "143900.171000", "143900.171000", "143900.171000", "143900.171000", "143900.171000", "143900.171000", "143900.187000", "143900.187000", "143900.187000", "143900.187000", "143900.187000", "143900.187000", "143900.187000", "143900.203000", "143900.203000", "143900.203000", "143900.203000", "143900.203000", "143920.156000", "143920.156000", "143920.156000", "143920.171000", "143920.171000", "143920.171000", "143920.171000", "143920.187000", "143920.187000", "143920.187000", "143920.187000", "143920.187000", "143920.203000", "143920.203000", "143920.203000", "143920.203000", "143920.203000", "143920.203000", "143920.203000", "143920.218000", "143940.156000", "143940.156000", "143940.171000", "143940.171000", "143940.171000", "143940.171000", "143940.171000", "143940.171000", "143940.187000", "143940.187000", "143940.187000", "143940.187000", "143940.187000", "143940.187000", "143940.187000", "143940.187000", "143940.203000", "143940.203000", "143940.203000", "143940.218000", "144000.156000", "144000.156000", "144000.171000", "144000.171000", "144000.171000", "144000.171000", "144000.171000", "144000.171000", "144000.171000", "144000.171000", "144000.187000", "144000.187000", "144000.187000", "144000.187000", "144000.187000", "144000.187000", "144000.187000", "144000.203000", "144000.203000", "144000.203000", "144020.156000", "144020.156000", "144020.156000", "144020.171000", "144020.171000", "144020.171000", "144020.171000", "144020.171000", "144020.171000", "144020.171000", "144020.187000", "144020.187000", "144020.187000", "144020.187000", "144020.187000", "144020.203000", "144020.203000", "144020.203000", "144020.203000", "144020.203000", "144040.156000", "144040.156000", "144040.171000", "144040.171000", "144040.171000", "144040.171000", "144040.171000", "144040.171000", "144040.187000", "144040.187000", "144040.187000", "144040.187000", "144040.187000", "144040.187000", "144040.187000", "144040.203000", "144040.203000", "144040.203000", "144040.203000", "144040.203000", "144100.156000", "144100.156000", "144100.171000", "144100.171000", "144100.171000", "144100.171000", "144100.171000", "144100.171000", "144100.171000", "144100.171000", "144100.187000", "144100.187000", "144100.187000", "144100.187000", "144100.187000", "144100.187000", "144100.187000", "144100.203000", "144100.203000", "144100.203000", "144120.156000", "144120.156000", "144120.156000", "144120.171000", "144120.171000", "144120.171000", "144120.171000", "144120.171000", "144120.171000", "144120.171000", "144120.187000", "144120.187000", "144120.187000", "144120.187000", "144120.187000", "144120.203000", "144120.203000", "144120.203000", "144120.203000", "144120.203000", "144140.156000", "144140.156000", "144140.171000", "144140.171000", "144140.171000", "144140.171000", "144140.171000", "144140.171000", "144140.171000", "144140.171000", "144140.187000", "144140.187000", "144140.187000", "144140.187000", "144140.187000", "144140.187000", "144140.187000", "144140.203000", "144140.203000", "144140.203000", "144200.156000", "144200.156000", "144200.171000", "144200.171000", "144200.171000", "144200.171000", "144200.171000", "144200.171000", "144200.171000", "144200.187000", "144200.187000", "144200.187000", "144200.187000", "144200.187000", "144200.187000", "144200.203000", "144200.203000", "144200.203000", "144200.203000", "144200.203000", "144220.156000", "144220.156000", "144220.171000", "144220.171000", "144220.171000", "144220.171000", "144220.171000", "144220.171000", "144220.171000", "144220.187000", "144220.187000", "144220.187000", "144220.187000", "144220.187000", "144220.187000", "144220.203000", "144220.203000", "144220.203000", "144220.203000", "144220.203000", "144240.156000", "144240.156000", "144240.171000", "144240.171000", "144240.171000", "144240.171000", "144240.171000", "144240.171000", "144240.187000", "144240.187000", "144240.187000", "144240.187000", "144240.187000", "144240.187000", "144240.187000", "144240.203000", "144240.203000", "144240.203000", "144240.203000", "144240.203000", "144300.156000", "144300.156000", "144300.171000", "144300.171000", "144300.171000", "144300.171000", "144300.171000", "144300.171000", "144300.171000", "144300.187000", "144300.187000", "144300.187000", "144300.187000", "144300.187000", "144300.187000", "144300.203000", "144300.203000", "144300.203000", "144300.218000", "144300.218000", "144320.156000", "144320.156000", "144320.156000", "144320.171000", "144320.171000", "144320.171000", "144320.171000", "144320.171000", "144320.171000", "144320.187000", "144320.187000", "144320.187000", "144320.187000", "144320.187000", "144320.187000", "144320.187000", "144320.203000", "144320.203000", "144320.203000", "144320.203000", "144344.109000", "144344.109000", "144344.109000", "144344.109000", "144344.109000", "144344.109000", "144344.109000", "144344.125000", "144344.125000", "144344.125000", "144344.125000", "144344.125000", "144344.140000", "144344.140000", "144344.140000", "144344.140000", "144344.140000", "144344.140000", "144344.140000"],
      "InstanceCreationTime": ["143840.203000", "143840.203000", "143840.203000", "143840.203000", "143840.203000", "143840.203000", "143840.218000", "143840.218000", "143840.218000", "143840.218000", "143840.218000", "143840.234000", "143840.234000", "143840.234000", "143840.234000", "143840.234000", "143840.234000", "143840.250000", "143840.250000", "143840.250000", "143840.250000", "143840.250000", "143840.250000", "143840.250000", "143840.265000", "143840.265000", "143840.265000", "143840.265000", "143840.265000", "143840.265000", "143840.265000", "143900.156000", "143900.156000", "143900.171000", "143900.171000", "143900.171000", "143900.171000", "143900.171000", "143900.171000", "143900.187000", "143900.187000", "143900.187000", "143900.187000", "143900.187000", "143900.187000", "143900.187000", "143900.203000", "143900.203000", "143900.203000", "143900.203000", "143900.203000", "143920.156000", "143920.156000", "143920.156000", "143920.171000", "143920.171000", "143920.171000", "143920.171000", "143920.187000", "143920.187000", "143920.187000", "143920.187000", "143920.187000", "143920.203000", "143920.203000", "143920.203000", "143920.203000", "143920.203000", "143920.203000", "143920.203000", "143920.218000", "143940.156000", "143940.156000", "143940.171000", "143940.171000", "143940.171000", "143940.171000", "143940.171000", "143940.171000", "143940.187000", "143940.187000", "143940.187000", "143940.187000", "143940.187000", "143940.187000", "143940.187000", "143940.187000", "143940.203000", "143940.203000", "143940.203000", "143940.218000", "144000.156000", "144000.156000", "144000.171000", "144000.171000", "144000.171000", "144000.171000", "144000.171000", "144000.171000", "144000.171000", "144000.171000", "144000.187000", "144000.187000", "144000.187000", "144000.187000", "144000.187000", "144000.187000", "144000.187000", "144000.203000", "144000.203000", "144000.203000", "144020.156000", "144020.156000", "144020.156000", "144020.171000", "144020.171000", "144020.171000", "144020.171000", "144020.171000", "144020.171000", "144020.171000", "144020.187000", "144020.187000", "144020.187000", "144020.187000", "144020.187000", "144020.203000", "144020.203000", "144020.203000", "144020.203000", "144020.203000", "144040.156000", "144040.156000", "144040.171000", "144040.171000", "144040.171000", "144040.171000", "144040.171000", "144040.171000", "144040.187000", "144040.187000", "144040.187000", "144040.187000", "144040.187000", "144040.187000", "144040.187000", "144040.203000", "144040.203000", "144040.203000", "144040.203000", "144040.203000", "144100.156000", "144100.156000", "144100.171000", "144100.171000", "144100.171000", "144100.171000", "144100.171000", "144100.171000", "144100.171000", "144100.171000", "144100.187000", "144100.187000", "144100.187000", "144100.187000", "144100.187000", "144100.187000", "144100.187000", "144100.203000", "144100.203000", "144100.203000", "144120.156000", "144120.156000", "144120.156000", "144120.171000", "144120.171000", "144120.171000", "144120.171000", "144120.171000", "144120.171000", "144120.171000", "144120.187000", "144120.187000", "144120.187000", "144120.187000", "144120.187000", "144120.203000", "144120.203000", "144120.203000", "144120.203000", "144120.203000", "144140.156000", "144140.156000", "144140.171000", "144140.171000", "144140.171000", "144140.171000", "144140.171000", "144140.171000", "144140.171000", "144140.171000", "144140.187000", "144140.187000", "144140.187000", "144140.187000", "144140.187000", "144140.187000", "144140.187000", "144140.203000", "144140.203000", "144140.203000", "144200.156000", "144200.156000", "144200.171000", "144200.171000", "144200.171000", "144200.171000", "144200.171000", "144200.171000", "144200.171000", "144200.187000", "144200.187000", "144200.187000", "144200.187000", "144200.187000", "144200.187000", "144200.203000", "144200.203000", "144200.203000", "144200.203000", "144200.203000", "144220.156000", "144220.156000", "144220.171000", "144220.171000", "144220.171000", "144220.171000", "144220.171000", "144220.171000", "144220.171000", "144220.187000", "144220.187000", "144220.187000", "144220.187000", "144220.187000", "144220.187000", "144220.203000", "144220.203000", "144220.203000", "144220.203000", "144220.203000", "144240.156000", "144240.156000", "144240.171000", "144240.171000", "144240.171000", "144240.171000", "144240.171000", "144240.171000", "144240.187000", "144240.187000", "144240.187000", "144240.187000", "144240.187000", "144240.187000", "144240.187000", "144240.203000", "144240.203000", "144240.203000", "144240.203000", "144240.203000", "144300.156000", "144300.156000", "144300.171000", "144300.171000", "144300.171000", "144300.171000", "144300.171000", "144300.171000", "144300.171000", "144300.187000", "144300.187000", "144300.187000", "144300.187000", "144300.187000", "144300.187000", "144300.203000", "144300.203000", "144300.203000", "144300.218000", "144300.218000", "144320.156000", "144320.156000", "144320.156000", "144320.171000", "144320.171000", "144320.171000", "144320.171000", "144320.171000", "144320.171000", "144320.187000", "144320.187000", "144320.187000", "144320.187000", "144320.187000", "144320.187000", "144320.187000", "144320.203000", "144320.203000", "144320.203000", "144320.203000", "144344.109000", "144344.109000", "144344.109000", "144344.109000", "144344.109000", "144344.109000", "144344.109000", "144344.125000", "144344.125000", "144344.125000", "144344.125000", "144344.125000", "144344.140000", "144344.140000", "144344.140000", "144344.140000", "144344.140000", "144344.140000", "144344.140000"],
      "InstanceNumber": [1, 2, 3, 4, 5, 6, 7, 8, 9, 10, 11, 12, 13, 14, 15, 16, 17, 18, 19, 20, 21, 22, 23, 24, 25, 26, 27, 28, 29, 30, 31, 32, 33, 34, 35, 36, 37, 38, 39, 40, 41, 42, 43, 44, 45, 46, 47, 48, 49, 50, 51, 52, 53, 54, 55, 56, 57, 58, 59, 60, 61, 62, 63, 64, 65, 66, 67, 68, 69, 70, 71, 72, 73, 74, 75, 76, 77, 78, 79, 80, 81, 82, 83, 84, 85, 86, 87, 88, 89, 90, 91, 92, 93, 94, 95, 96, 97, 98, 99, 100, 101, 102, 103, 104, 105, 106, 107, 108, 109, 110, 111, 112, 113, 114, 115, 116, 117, 118, 119, 120, 121, 122, 123, 124, 125, 126, 127, 128, 129, 130, 131, 132, 133, 134, 135, 136, 137, 138, 139, 140, 141, 142, 143, 144, 145, 146, 147, 148, 149, 150, 151, 152, 153, 154, 155, 156, 157, 158, 159, 160, 161, 162, 163, 164, 165, 166, 167, 168, 169, 170, 171, 172, 173, 174, 175, 176, 177, 178, 179, 180, 181, 182, 183, 184, 185, 186, 187, 188, 189, 190, 191, 192, 193, 194, 195, 196, 197, 198, 199, 200, 201, 202, 203, 204, 205, 206, 207, 208, 209, 210, 211, 212, 213, 214, 215, 216, 217, 218, 219, 220, 221, 222, 223, 224, 225, 226, 227, 228, 229, 230, 231, 232, 233, 234, 235, 236, 237, 238, 239, 240, 241, 242, 243, 244, 245, 246, 247, 248, 249, 250, 251, 252, 253, 254, 255, 256, 257, 258, 259, 260, 261, 262, 263, 264, 265, 266, 267, 268, 269, 270, 271, 272, 273, 274, 275, 276, 277, 278, 279, 280, 281, 282, 283, 284, 285, 286, 287, 288, 289, 290, 291, 292, 293, 294, 295, 296, 297, 298, 299, 300, 301, 302, 303, 304, 305, 306, 307, 308, 309, 310, 311, 312, 313, 314, 315, 316, 317, 318, 319, 320, 321, 322, 323, 324, 325, 326, 327, 328, 329, 330],
      "LargestImagePixelValue": [3447, 3460, 3436, 3371, 3373, 3382, 3339, 3313, 3366, 3334, 3351, 3381, 3377, 3409, 3401, 3330, 3338, 3339, 3326, 3366, 3334, 3354, 3392, 3331, 3368, 3357, 3318, 3374, 3368, 3403, 3401, 3416, 3383, 3399, 3393, 3419, 3385, 3351, 3434, 3398, 3420, 3433, 3376, 3378, 3416, 3389, 3370, 3412, 3434, 3420, 3392, 3386, 3427, 3353, 3382, 3382, 3361, 3385, 3423, 3357, 3383, 3392, 3378, 3416, 3424, 3367, 3398, 3371, 3382, 3411, 3388, 3328, 3378, 3345, 3348, 3383, 3312, 3317, 3416, 3360, 3383, 3419, 3333, 3333, 3382, 3356, 3341, 3413, 3364, 3383, 3392, 3343, 3387, 3362, 3380, 3422, 3367, 3398, 3406, 3400, 3417, 3393, 3362, 3421, 3378, 3402, 3402, 3347, 3394, 3389, 3354, 3413, 3360, 3399, 3416, 3356, 3393, 3367, 3381, 3413, 3360, 3406, 3376, 3351, 3402, 3392, 3382, 3408, 3338, 3370, 3382, 3368, 3379, 3380, 3390, 3396, 3358, 3350, 3388, 3364, 3382, 3413, 3343, 3399, 3410, 3364, 3427, 3363, 3408, 3443, 3356, 3353, 3353, 3332, 3390, 3402, 3330, 3396, 3376, 3342, 3388, 3339, 3334, 3382, 3362, 3408, 3388, 3356, 3373, 3391, 3397, 3404, 3374, 3394, 3398, 3414, 3370, 3383, 3362, 3380, 3402, 3370, 3399, 3431, 3446, 3387, 3408, 3416, 3356, 3385, 3404, 3357, 3371, 3323, 3344, 3341, 3363, 3329, 3396, 3402, 3352, 3353, 3324, 3380, 3375, 3362, 3376, 3350, 3394, 3391, 3352, 3348, 3320, 3325, 3378, 3390, 3374, 3327, 3342, 3310, 3360, 3341, 3404, 3388, 3335, 3331, 3345, 3322, 3357, 3367, 3436, 3373, 3391, 3393, 3398, 3373, 3325, 3367, 3355, 3419, 3382, 3389, 3410, 3379, 3414, 3336, 3325, 3381, 3380, 3367, 3393, 3400, 3336, 3381, 3371, 3313, 3340, 3336, 3326, 3334, 3335, 3286, 3343, 3350, 3307, 3324, 3289, 3280, 3343, 3322, 3364, 3338, 3311, 3358, 3352, 3314, 3384, 3354, 3371, 3395, 3338, 3352, 3345, 3314, 3367, 3286, 3281, 3362, 3312, 3359, 3354, 3295, 3358, 3327, 3343, 3298, 3315, 3326, 3378, 3330, 3315, 3341, 3308, 3379, 3328, 3310, 3342, 3338, 3397, 3388, 3374, 3333, 3364, 3394, 3392, 3398, 3405, 3422, 3418, 3421, 3408, 3409, 3393, 3394, 3420, 3394, 3343, 3353, 3388, 3349],
      "WindowCenter": [441.0, 441.0, 440.0, 439.0, 440.0, 440.0, 439.0, 438.0, 439.0, 438.0, 438.0, 440.0, 440.0, 441.0, 441.0, 440.0, 439.0, 439.0, 437.0, 439.0, 439.0, 440.0, 441.0, 441.0, 441.0, 440.0, 439.0, 440.0, 439.0, 439.0, 440.0, 441.0, 440.0, 441.0, 440.0, 440.0, 440.0, 439.0, 441.0, 441.0, 441.0, 441.0, 440.0, 439.0, 441.0, 441.0, 441.0, 441.0, 442.0, 440.0, 440.0, 441.0, 442.0, 441.0, 441.0, 441.0, 440.0, 440.0, 441.0, 440.0, 441.0, 441.0, 441.0, 441.0, 441.0, 440.0, 441.0, 441.0, 439.0, 440.0, 439.0, 438.0, 439.0, 439.0, 439.0, 440.0, 439.0, 438.0, 440.0, 439.0, 439.0, 440.0, 440.0, 439.0, 439.0, 439.0, 438.0, 440.0, 440.0, 440.0, 440.0, 439.0, 439.0, 439.0, 439.0, 440.0, 440.0, 440.0, 441.0, 440.0, 441.0, 442.0, 442.0, 442.0, 441.0, 441.0, 440.0, 439.0, 440.0, 440.0, 439.0, 440.0, 440.0, 442.0, 442.0, 440.0, 440.0, 439.0, 438.0, 439.0, 438.0, 439.0, 440.0, 440.0, 441.0, 441.0, 441.0, 441.0, 440.0, 439.0, 440.0, 439.0, 440.0, 441.0, 441.0, 441.0, 440.0, 438.0, 439.0, 438.0, 439.0, 440.0, 439.0, 439.0, 440.0, 439.0, 440.0, 440.0, 441.0, 443.0, 442.0, 441.0, 440.0, 439.0, 440.0, 440.0, 439.0, 440.0, 441.0, 440.0, 442.0, 441.0, 440.0, 441.0, 439.0, 440.0, 440.0, 439.0, 440.0, 441.0, 441.0, 441.0, 440.0, 440.0, 441.0, 442.0, 441.0, 441.0, 441.0, 441.0, 441.0, 441.0, 441.0, 441.0, 442.0, 441.0, 441.0, 441.0, 439.0, 439.0, 440.0, 439.0, 440.0, 440.0, 440.0, 440.0, 439.0, 438.0, 440.0, 441.0, 441.0, 441.0, 440.0, 441.0, 440.0, 439.0, 440.0, 440.0, 441.0, 441.0, 440.0, 440.0, 439.0, 437.0, 438.0, 440.0, 441.0, 440.0, 440.0, 439.0, 439.0, 439.0, 441.0, 441.0, 441.0, 441.0, 440.0, 440.0, 439.0, 438.0, 440.0, 440.0, 442.0, 443.0, 443.0, 442.0, 440.0, 439.0, 439.0, 440.0, 440.0, 441.0, 443.0, 442.0, 442.0, 440.0, 438.0, 439.0, 439.0, 438.0, 438.0, 439.0, 438.0, 440.0, 441.0, 441.0, 440.0, 440.0, 440.0, 440.0, 440.0, 438.0, 439.0, 441.0, 440.0, 440.0, 440.0, 439.0, 440.0, 439.0, 439.0, 439.0, 439.0, 441.0, 442.0, 441.0, 441.0, 441.0, 440.0, 441.0, 440.0, 441.0, 441.0, 440.0, 440.0, 438.0, 438.0, 439.0, 438.0, 439.0, 440.0, 440.0, 441.0, 440.0, 440.0, 438.0, 438.0, 437.0, 440.0, 440.0, 441.0, 441.0, 440.0, 441.0, 440.0, 439.0, 440.0, 440.0, 441.0, 441.0, 442.0, 441.0, 441.0, 441.0, 440.0, 441.0, 441.0, 443.0, 444.0, 443.0, 442.0, 441.0, 440.0, 439.0, 439.0, 440.0, 439.0, 440.0, 441.0, 440.0],
