{
  "AcquisitionMatrixPE": 104,
  "AcquisitionNumber": 1,
  "AcquisitionTime": "15:00:59.140000",
  "BandwidthPerPixelPhaseEncode": 43.054,
  "BaseResolution": 104,
  "CoilString": "C:E1_2",
  "ConversionSoftware": "dcm2niix",
  "ConversionSoftwareVersion": "v1.0.20191031",
  "DerivedVendorReportedEchoSpacing": 0.000669999,
  "DeviceSerialNumber": "18932",
  "DwellTime": 2.8e-06,
  "EchoTime": 0.02,
  "EffectiveEchoSpacing": 0.000223333,
  "FlipAngle": 30,
  "ImageComments": "Unaliased_MB2_PE2",
  "ImageOrientationPatientDICOM": [1, 0, 0, 0, 0.989272, -0.146083],
  "ImageType": [
    "ORIGINAL",
    "PRIMARY",
    "M",
    "MB",
    "ND",
    "MOSAIC"
],
  "ImagingFrequency": 297.229,
  "InPlanePhaseEncodingDirectionDICOM": "COL",
  "InstitutionAddress": "Richmond_Street_North_1151_London_409EF2_Ontario_CA_N6A_5B7",
  "InstitutionName": "Robarts_Reserch_Institute",
  "InstitutionalDepartmentName": "Department",
  "MRAcquisitionType": "2D",
  "MagneticFieldStrength": 6.98,
  "Manufacturer": "Siemens",
  "ManufacturersModelName": "Investigational_Device_7T",
  "Modality": "MR",
  "MultibandAccelerationFactor": 2,
  "ParallelReductionFactorInPlane": 3,
  "PartialFourier": 0.875,
  "PatientPosition": "HFS",
  "PercentPhaseFOV": 100,
  "PhaseEncodingDirection": "j-",
  "PhaseEncodingSteps": 91,
  "PhaseResolution": 1,
  "PixelBandwidth": 1717,
  "ProcedureStepDescription": "Diedrichsen_SeqRep4",
  "ProtocolName": "mbep2d_bold_mb2_p3_AP_2iso",
  "PulseSequenceDetails": "%CustomerSeq%_cmrr_mbep2d_bold",
  "ReceiveCoilName": "CFMM_8Tx32Rx",
  "ReconMatrixPE": 104,
  "RefLinesPE": 36,
  "RepetitionTime": 1,
  "ScanOptions": "PFP_FS",
  "ScanningSequence": "EP",
  "SequenceName": "epfid2d1_104",
  "SequenceVariant": "SK_SS",
  "SeriesDescription": "mbep2d_bold_mb2_p3_AP_2iso",
  "SeriesNumber": 26,
  "ShimSetting": [1, 2087, 40, 1507, 44, 88, 447, -102],
  "SliceThickness": 2,
  "SliceTiming": [0, 0.23, 0.4575, 0.685, 0.9125, 0.1375, 0.365, 0.595, 0.8225, 0.0475, 0.275, 0.5025, 0.73, 0.96, 0.1825, 0.4125, 0.64, 0.8675, 0.0925, 0.32, 0.5475, 0.7775, 0, 0.23, 0.4575, 0.685, 0.9125, 0.1375, 0.365, 0.595, 0.8225, 0.0475, 0.275, 0.5025, 0.73, 0.96, 0.1825, 0.4125, 0.64, 0.8675, 0.0925, 0.32, 0.5475, 0.7775],
  "SoftwareVersions": "syngo_MR_B17",
  "SpacingBetweenSlices": 2,
  "StationName": "MASTER",
  "TaskName": "dsp",
  "TotalReadoutTime": 0.0230033,
  "TxRefAmp": 120,
  "dcmmeta_affine": [
    [-2.0, 0.0, 0.0, 107.6319580078125],
    [0.0, 1.9785447120666504, -0.2921660542488098, -114.23896789550781],
    [0.0, 0.2921660542488098, 1.9785445928573608, -47.31913375854492],
    [0.0, 0.0, 0.0, 1.0]
],
  "dcmmeta_reorient_transform": [
    [0.0, -1.0, 0.0, 103.0],
    [1.0, 0.0, 0.0, 0.0],
    [0.0, 0.0, 1.0, 0.0],
    [0.0, 0.0, 0.0, 1.0]
],
  "dcmmeta_shape": [104, 104, 44, 330],
  "dcmmeta_slice_dim": 2,
  "dcmmeta_version": 0.6,
  "global": {
    "const": {
      "AcquisitionMatrix": [104, 0, 0, 104],
      "AngioFlag": "N",
      "BitsAllocated": 16,
      "BitsStored": 12,
      "Columns": 728,
      "EchoNumbers": 1,
      "EchoTime": 20.0,
      "EchoTrainLength": 1,
      "FlipAngle": 30.0,
      "HighBit": 11,
      "ImageOrientationPatient": [1.0, 0.0, 0.0, 0.0, 0.98927233216483, -0.1460830339675],
      "ImagePositionPatient": [-731.63196134567, -706.85706880538, 73.929785703438],
      "ImageType": [
        "ORIGINAL",
        "PRIMARY",
        "M",
        "MB",
        "ND",
        "MOSAIC"
],
      "ImagedNucleus": "1H",
      "ImagingFrequency": 297.228799,
      "InPlanePhaseEncodingDirection": "COL",
      "MRAcquisitionType": "2D",
      "MagneticFieldStrength": 6.98,
      "Manufacturer": "SIEMENS",
      "ManufacturerModelName": "Investigational_Device_7T",
      "Modality": "MR",
      "NumberOfAverages": 1.0,
      "NumberOfPhaseEncodingSteps": 91,
      "PercentPhaseFieldOfView": 100.0,
      "PercentSampling": 100.0,
      "PerformedProcedureStepStartTime": "140116.046000",
      "PhotometricInterpretation": "MONOCHROME2",
      "PixelBandwidth": 1717.0,
      "PixelRepresentation": 0,
      "PixelSpacing": [2.0, 2.0],
      "ProtocolName": "mbep2d_bold_mb2_p3_AP 2iso",
      "RepetitionTime": 1000.0,
      "Rows": 728,
      "SAR": 0.0,
      "SamplesPerPixel": 1,
      "ScanOptions": [
        "PFP",
        "FS"
],
      "ScanningSequence": "EP",
      "SequenceName": "epfid2d1_104",
      "SequenceVariant": [
        "SK",
        "SS"
],
      "SeriesDescription": "mbep2d_bold_mb2_p3_AP 2iso",
      "SeriesNumber": 26,
      "SeriesTime": "150140.203000",
      "SliceLocation": -30.123133673177,
      "SliceThickness": 2.0,
      "SmallestImagePixelValue": 0,
      "SoftwareVersions": "syngo MR B17",
      "SpacingBetweenSlices": 1.9999999702561,
      "SpecificCharacterSet": "ISO_IR 100",
      "StudyID": "1",
      "StudyTime": "140116.000000",
      "TransmitCoilName": "CFMM_8Tx32Rx",
      "VariableFlipAngleFlag": "N",
      "WindowCenterWidthExplanation": "Algo1",
      "dBdt": 0.0},
    "slices": {}
  },
  "time": {
    "samples": {
      "AcquisitionNumber": [1, 2, 3, 4, 5, 6, 7, 8, 9, 10, 11, 12, 13, 14, 15, 16, 17, 18, 19, 20, 21, 22, 23, 24, 25, 26, 27, 28, 29, 30, 31, 32, 33, 34, 35, 36, 37, 38, 39, 40, 41, 42, 43, 44, 45, 46, 47, 48, 49, 50, 51, 52, 53, 54, 55, 56, 57, 58, 59, 60, 61, 62, 63, 64, 65, 66, 67, 68, 69, 70, 71, 72, 73, 74, 75, 76, 77, 78, 79, 80, 81, 82, 83, 84, 85, 86, 87, 88, 89, 90, 91, 92, 93, 94, 95, 96, 97, 98, 99, 100, 101, 102, 103, 104, 105, 106, 107, 108, 109, 110, 111, 112, 113, 114, 115, 116, 117, 118, 119, 120, 121, 122, 123, 124, 125, 126, 127, 128, 129, 130, 131, 132, 133, 134, 135, 136, 137, 138, 139, 140, 141, 142, 143, 144, 145, 146, 147, 148, 149, 150, 151, 152, 153, 154, 155, 156, 157, 158, 159, 160, 161, 162, 163, 164, 165, 166, 167, 168, 169, 170, 171, 172, 173, 174, 175, 176, 177, 178, 179, 180, 181, 182, 183, 184, 185, 186, 187, 188, 189, 190, 191, 192, 193, 194, 195, 196, 197, 198, 199, 200, 201, 202, 203, 204, 205, 206, 207, 208, 209, 210, 211, 212, 213, 214, 215, 216, 217, 218, 219, 220, 221, 222, 223, 224, 225, 226, 227, 228, 229, 230, 231, 232, 233, 234, 235, 236, 237, 238, 239, 240, 241, 242, 243, 244, 245, 246, 247, 248, 249, 250, 251, 252, 253, 254, 255, 256, 257, 258, 259, 260, 261, 262, 263, 264, 265, 266, 267, 268, 269, 270, 271, 272, 273, 274, 275, 276, 277, 278, 279, 280, 281, 282, 283, 284, 285, 286, 287, 288, 289, 290, 291, 292, 293, 294, 295, 296, 297, 298, 299, 300, 301, 302, 303, 304, 305, 306, 307, 308, 309, 310, 311, 312, 313, 314, 315, 316, 317, 318, 319, 320, 321, 322, 323, 324, 325, 326, 327, 328, 329, 330],
      "AcquisitionTime": ["150059.140000", "150100.145000", "150101.150000", "150102.152500", "150103.157500", "150104.160000", "150105.165000", "150106.170000", "150107.172500", "150108.177500", "150109.182500", "150110.185000", "150111.190000", "150112.192500", "150113.197500", "150114.202500", "150115.205000", "150116.210000", "150117.212500", "150118.217500", "150119.222500", "150120.225000", "150121.230000", "150122.232500", "150123.237500", "150124.242500", "150125.245000", "150126.250000", "150127.252500", "150128.257500", "150129.262500", "150130.265000", "150131.270000", "150132.272500", "150133.277500", "150134.282500", "150135.285000", "150136.290000", "150137.292500", "150138.297500", "150139.302500", "150140.305000", "150141.310000", "150142.315000", "150143.317500", "150144.322500", "150145.325000", "150146.330000", "150147.335000", "150148.337500", "150149.342500", "150150.345000", "150151.350000", "150152.355000", "150153.357500", "150154.362500", "150155.365000", "150156.370000", "150157.375000", "150158.377500", "150159.382500", "150200.385000", "150201.390000", "150202.395000", "150203.397500", "150204.402500", "150205.405000", "150206.410000", "150207.415000", "150208.417500", "150209.422500", "150210.427500", "150211.430000", "150212.435000", "150213.437500", "150214.442500", "150215.447500", "150216.450000", "150217.455000", "150218.457500", "150219.462500", "150220.467500", "150221.470000", "150222.475000", "150223.477500", "150224.482500", "150225.487500", "150226.490000", "150227.495000", "150228.497500", "150229.502500", "150230.507500", "150231.510000", "150232.515000", "150233.517500", "150234.522500", "150235.527500", "150236.530000", "150237.535000", "150238.537500", "150239.542500", "150240.547500", "150241.550000", "150242.555000", "150243.560000", "150244.562500", "150245.567500", "150246.570000", "150247.575000", "150248.580000", "150249.582500", "150250.587500", "150251.590000", "150252.595000", "150253.600000", "150254.602500", "150255.607500", "150256.610000", "150257.615000", "150258.620000", "150259.622500", "150300.627500", "150301.630000", "150302.635000", "150303.640000", "150304.642500", "150305.647500", "150306.650000", "150307.655000", "150308.660000", "150309.662500", "150310.667500", "150311.672500", "150312.675000", "150313.680000", "150314.682500", "150315.687500", "150316.692500", "150317.695000", "150318.700000", "150319.702500", "150320.707500", "150321.712500", "150322.715000", "150323.720000", "150324.722500", "150325.727500", "150326.732500", "150327.735000", "150328.740000", "150329.742500", "150330.747500", "150331.752500", "150332.755000", "150333.760000", "150334.762500", "150335.767500", "150336.772500", "150337.775000", "150338.780000", "150339.782500", "150340.787500", "150341.792500", "150342.795000", "150343.800000", "150344.805000", "150345.807500", "150346.812500", "150347.815000", "150348.820000", "150349.825000", "150350.827500", "150351.832500", "150352.835000", "150353.840000", "150354.845000", "150355.847500", "150356.852500", "150357.855000", "150358.860000", "150359.865000", "150400.867500", "150401.872500", "150402.875000", "150403.880000", "150404.885000", "150405.887500", "150406.892500", "150407.895000", "150408.900000", "150409.905000", "150410.907500", "150411.912500", "150412.915000", "150413.920000", "150414.925000", "150415.927500", "150416.932500", "150417.937500", "150418.940000", "150419.945000", "150420.947500", "150421.952500", "150422.957500", "150423.960000", "150424.965000", "150425.967500", "150426.972500", "150427.977500", "150428.980000", "150429.985000", "150430.987500", "150431.992500", "150432.997500", "150434.000000", "150435.005000", "150436.007500", "150437.012500", "150438.017500", "150439.020000", "150440.025000", "150441.027500", "150442.032500", "150443.037500", "150444.040000", "150445.045000", "150446.050000", "150447.052500", "150448.057500", "150449.060000", "150450.065000", "150451.070000", "150452.072500", "150453.077500", "150454.080000", "150455.085000", "150456.090000", "150457.092500", "150458.097500", "150459.100000", "150500.105000", "150501.110000", "150502.112500", "150503.117500", "150504.120000", "150505.125000", "150506.130000", "150507.132500", "150508.137500", "150509.140000", "150510.145000", "150511.150000", "150512.152500", "150513.157500", "150514.160000", "150515.165000", "150516.170000", "150517.172500", "150518.177500", "150519.182500", "150520.185000", "150521.190000", "150522.192500", "150523.197500", "150524.202500", "150525.205000", "150526.210000", "150527.212500", "150528.217500", "150529.222500", "150530.225000", "150531.230000", "150532.232500", "150533.237500", "150534.242500", "150535.245000", "150536.250000", "150537.252500", "150538.257500", "150539.262500", "150540.265000", "150541.270000", "150542.272500", "150543.277500", "150544.282500", "150545.285000", "150546.290000", "150547.292500", "150548.297500", "150549.302500", "150550.305000", "150551.310000", "150552.315000", "150553.317500", "150554.322500", "150555.325000", "150556.330000", "150557.335000", "150558.337500", "150559.342500", "150600.345000", "150601.350000", "150602.355000", "150603.357500", "150604.362500", "150605.365000", "150606.370000", "150607.375000", "150608.377500", "150609.382500", "150610.385000", "150611.390000", "150612.395000", "150613.397500", "150614.402500", "150615.405000", "150616.410000", "150617.415000", "150618.417500", "150619.422500", "150620.427500", "150621.430000", "150622.435000", "150623.437500", "150624.442500", "150625.447500", "150626.450000", "150627.455000", "150628.457500", "150629.462500"],
      "ContentTime": ["150140.203000", "150140.203000", "150140.218000", "150140.218000", "150140.218000", "150140.218000", "150140.218000", "150140.234000", "150140.234000", "150140.234000", "150140.234000", "150140.234000", "150140.234000", "150140.234000", "150140.250000", "150140.250000", "150140.250000", "150140.250000", "150140.250000", "150140.250000", "150140.250000", "150140.265000", "150140.265000", "150140.265000", "150140.265000", "150140.281000", "150140.281000", "150140.281000", "150140.281000", "150140.281000", "150140.281000", "150140.281000", "150140.281000", "150140.296000", "150140.296000", "150140.296000", "150140.296000", "150140.312000", "150140.312000", "150200.156000", "150200.156000", "150200.171000", "150200.171000", "150200.171000", "150200.171000", "150200.171000", "150200.171000", "150200.171000", "150200.171000", "150200.187000", "150200.187000", "150200.187000", "150200.187000", "150200.203000", "150200.203000", "150200.203000", "150200.203000", "150200.203000", "150200.218000", "150220.156000", "150220.156000", "150220.156000", "150220.171000", "150220.171000", "150220.171000", "150220.171000", "150220.171000", "150220.171000", "150220.187000", "150220.187000", "150220.187000", "150220.187000", "150220.187000", "150220.187000", "150220.187000", "150220.203000", "150220.203000", "150220.203000", "150220.203000", "150240.156000", "150240.156000", "150240.171000", "150240.171000", "150240.171000", "150240.171000", "150240.171000", "150240.171000", "150240.171000", "150240.171000", "150240.187000", "150240.187000", "150240.187000", "150240.187000", "150240.187000", "150240.203000", "150240.203000", "150240.203000", "150240.203000", "150240.203000", "150300.156000", "150300.156000", "150300.171000", "150300.171000", "150300.171000", "150300.171000", "150300.171000", "150300.171000", "150300.171000", "150300.187000", "150300.187000", "150300.187000", "150300.187000", "150300.187000", "150300.187000", "150300.187000", "150300.203000", "150300.203000", "150300.203000", "150300.203000", "150320.156000", "150320.156000", "150320.156000", "150320.171000", "150320.171000", "150320.187000", "150320.187000", "150320.187000", "150320.187000", "150320.187000", "150320.187000", "150320.203000", "150320.203000", "150320.203000", "150320.218000", "150320.218000", "150320.218000", "150320.218000", "150320.218000", "150320.218000", "150340.156000", "150340.171000", "150340.171000", "150340.171000", "150340.171000", "150340.171000", "150340.171000", "150340.171000", "150340.187000", "150340.187000", "150340.187000", "150340.187000", "150340.187000", "150340.187000", "150340.203000", "150340.203000", "150340.203000", "150340.203000", "150340.203000", "150340.203000", "150400.156000", "150400.156000", "150400.171000", "150400.171000", "150400.171000", "150400.171000", "150400.171000", "150400.171000", "150400.171000", "150400.187000", "150400.187000", "150400.187000", "150400.187000", "150400.187000", "150400.187000", "150400.187000", "150400.187000", "150400.203000", "150400.203000", "150400.203000", "150420.156000", "150420.156000", "150420.156000", "150420.171000", "150420.171000", "150420.171000", "150420.171000", "150420.171000", "150420.171000", "150420.171000", "150420.187000", "150420.187000", "150420.187000", "150420.187000", "150420.187000", "150420.187000", "150420.187000", "150420.203000", "150420.203000", "150420.203000", "150440.156000", "150440.171000", "150440.171000", "150440.171000", "150440.171000", "150440.171000", "150440.171000", "150440.171000", "150440.187000", "150440.187000", "150440.187000", "150440.187000", "150440.187000", "150440.187000", "150440.187000", "150440.203000", "150440.203000", "150440.203000", "150440.203000", "150440.203000", "150500.156000", "150500.156000", "150500.156000", "150500.171000", "150500.171000", "150500.171000", "150500.171000", "150500.171000", "150500.171000", "150500.171000", "150500.187000", "150500.187000", "150500.187000", "150500.187000", "150500.187000", "150500.187000", "150500.187000", "150500.203000", "150500.203000", "150500.203000", "150520.156000", "150520.156000", "150520.156000", "150520.171000", "150520.171000", "150520.171000", "150520.171000", "150520.187000", "150520.187000", "150520.187000", "150520.187000", "150520.187000", "150520.187000", "150520.187000", "150520.203000", "150520.203000", "150520.203000", "150520.203000", "150520.203000", "150520.203000", "150540.156000", "150540.156000", "150540.171000", "150540.171000", "150540.171000", "150540.171000", "150540.171000", "150540.171000", "150540.171000", "150540.187000", "150540.187000", "150540.187000", "150540.187000", "150540.187000", "150540.203000", "150540.203000", "150540.203000", "150540.203000", "150540.203000", "150540.203000", "150600.156000", "150600.156000", "150600.171000", "150600.171000", "150600.171000", "150600.171000", "150600.171000", "150600.171000", "150600.187000", "150600.187000", "150600.187000", "150600.187000", "150600.187000", "150600.187000", "150600.203000", "150600.203000", "150600.218000", "150600.218000", "150600.218000", "150600.218000", "150620.156000", "150620.156000", "150620.156000", "150620.171000", "150620.171000", "150620.171000", "150620.171000", "150620.187000", "150620.187000", "150620.187000", "150620.187000", "150620.187000", "150620.187000", "150620.203000", "150620.203000", "150620.203000", "150620.203000", "150620.218000", "150620.218000", "150620.218000", "150635.203000", "150635.203000", "150635.203000", "150635.203000", "150635.218000", "150635.218000", "150635.218000", "150635.218000", "150635.218000", "150635.218000", "150635.218000"],
      "InstanceCreationTime": ["150140.203000", "150140.203000", "150140.218000", "150140.218000", "150140.218000", "150140.218000", "150140.218000", "150140.234000", "150140.234000", "150140.234000", "150140.234000", "150140.234000", "150140.234000", "150140.234000", "150140.250000", "150140.250000", "150140.250000", "150140.250000", "150140.250000", "150140.250000", "150140.250000", "150140.265000", "150140.265000", "150140.265000", "150140.265000", "150140.281000", "150140.281000", "150140.281000", "150140.281000", "150140.281000", "150140.281000", "150140.281000", "150140.281000", "150140.296000", "150140.296000", "150140.296000", "150140.296000", "150140.312000", "150140.312000", "150200.156000", "150200.156000", "150200.171000", "150200.171000", "150200.171000", "150200.171000", "150200.171000", "150200.171000", "150200.171000", "150200.171000", "150200.187000", "150200.187000", "150200.187000", "150200.187000", "150200.203000", "150200.203000", "150200.203000", "150200.203000", "150200.203000", "150200.218000", "150220.156000", "150220.156000", "150220.156000", "150220.171000", "150220.171000", "150220.171000", "150220.171000", "150220.171000", "150220.171000", "150220.187000", "150220.187000", "150220.187000", "150220.187000", "150220.187000", "150220.187000", "150220.187000", "150220.203000", "150220.203000", "150220.203000", "150220.203000", "150240.156000", "150240.156000", "150240.171000", "150240.171000", "150240.171000", "150240.171000", "150240.171000", "150240.171000", "150240.171000", "150240.171000", "150240.187000", "150240.187000", "150240.187000", "150240.187000", "150240.187000", "150240.203000", "150240.203000", "150240.203000", "150240.203000", "150240.203000", "150300.156000", "150300.156000", "150300.171000", "150300.171000", "150300.171000", "150300.171000", "150300.171000", "150300.171000", "150300.171000", "150300.187000", "150300.187000", "150300.187000", "150300.187000", "150300.187000", "150300.187000", "150300.187000", "150300.203000", "150300.203000", "150300.203000", "150300.203000", "150320.156000", "150320.156000", "150320.156000", "150320.171000", "150320.171000", "150320.187000", "150320.187000", "150320.187000", "150320.187000", "150320.187000", "150320.187000", "150320.203000", "150320.203000", "150320.203000", "150320.218000", "150320.218000", "150320.218000", "150320.218000", "150320.218000", "150320.218000", "150340.156000", "150340.171000", "150340.171000", "150340.171000", "150340.171000", "150340.171000", "150340.171000", "150340.171000", "150340.187000", "150340.187000", "150340.187000", "150340.187000", "150340.187000", "150340.187000", "150340.203000", "150340.203000", "150340.203000", "150340.203000", "150340.203000", "150340.203000", "150400.156000", "150400.156000", "150400.171000", "150400.171000", "150400.171000", "150400.171000", "150400.171000", "150400.171000", "150400.171000", "150400.187000", "150400.187000", "150400.187000", "150400.187000", "150400.187000", "150400.187000", "150400.187000", "150400.187000", "150400.203000", "150400.203000", "150400.203000", "150420.156000", "150420.156000", "150420.156000", "150420.171000", "150420.171000", "150420.171000", "150420.171000", "150420.171000", "150420.171000", "150420.171000", "150420.187000", "150420.187000", "150420.187000", "150420.187000", "150420.187000", "150420.187000", "150420.187000", "150420.203000", "150420.203000", "150420.203000", "150440.156000", "150440.171000", "150440.171000", "150440.171000", "150440.171000", "150440.171000", "150440.171000", "150440.171000", "150440.187000", "150440.187000", "150440.187000", "150440.187000", "150440.187000", "150440.187000", "150440.187000", "150440.203000", "150440.203000", "150440.203000", "150440.203000", "150440.203000", "150500.156000", "150500.156000", "150500.156000", "150500.171000", "150500.171000", "150500.171000", "150500.171000", "150500.171000", "150500.171000", "150500.171000", "150500.187000", "150500.187000", "150500.187000", "150500.187000", "150500.187000", "150500.187000", "150500.187000", "150500.203000", "150500.203000", "150500.203000", "150520.156000", "150520.156000", "150520.156000", "150520.171000", "150520.171000", "150520.171000", "150520.171000", "150520.187000", "150520.187000", "150520.187000", "150520.187000", "150520.187000", "150520.187000", "150520.187000", "150520.203000", "150520.203000", "150520.203000", "150520.203000", "150520.203000", "150520.203000", "150540.156000", "150540.156000", "150540.171000", "150540.171000", "150540.171000", "150540.171000", "150540.171000", "150540.171000", "150540.171000", "150540.187000", "150540.187000", "150540.187000", "150540.187000", "150540.187000", "150540.203000", "150540.203000", "150540.203000", "150540.203000", "150540.203000", "150540.203000", "150600.156000", "150600.156000", "150600.171000", "150600.171000", "150600.171000", "150600.171000", "150600.171000", "150600.171000", "150600.187000", "150600.187000", "150600.187000", "150600.187000", "150600.187000", "150600.187000", "150600.203000", "150600.203000", "150600.218000", "150600.218000", "150600.218000", "150600.218000", "150620.156000", "150620.156000", "150620.156000", "150620.171000", "150620.171000", "150620.171000", "150620.171000", "150620.187000", "150620.187000", "150620.187000", "150620.187000", "150620.187000", "150620.187000", "150620.203000", "150620.203000", "150620.203000", "150620.203000", "150620.218000", "150620.218000", "150620.218000", "150635.203000", "150635.203000", "150635.203000", "150635.203000", "150635.218000", "150635.218000", "150635.218000", "150635.218000", "150635.218000", "150635.218000", "150635.218000"],
      "InstanceNumber": [1, 2, 3, 4, 5, 6, 7, 8, 9, 10, 11, 12, 13, 14, 15, 16, 17, 18, 19, 20, 21, 22, 23, 24, 25, 26, 27, 28, 29, 30, 31, 32, 33, 34, 35, 36, 37, 38, 39, 40, 41, 42, 43, 44, 45, 46, 47, 48, 49, 50, 51, 52, 53, 54, 55, 56, 57, 58, 59, 60, 61, 62, 63, 64, 65, 66, 67, 68, 69, 70, 71, 72, 73, 74, 75, 76, 77, 78, 79, 80, 81, 82, 83, 84, 85, 86, 87, 88, 89, 90, 91, 92, 93, 94, 95, 96, 97, 98, 99, 100, 101, 102, 103, 104, 105, 106, 107, 108, 109, 110, 111, 112, 113, 114, 115, 116, 117, 118, 119, 120, 121, 122, 123, 124, 125, 126, 127, 128, 129, 130, 131, 132, 133, 134, 135, 136, 137, 138, 139, 140, 141, 142, 143, 144, 145, 146, 147, 148, 149, 150, 151, 152, 153, 154, 155, 156, 157, 158, 159, 160, 161, 162, 163, 164, 165, 166, 167, 168, 169, 170, 171, 172, 173, 174, 175, 176, 177, 178, 179, 180, 181, 182, 183, 184, 185, 186, 187, 188, 189, 190, 191, 192, 193, 194, 195, 196, 197, 198, 199, 200, 201, 202, 203, 204, 205, 206, 207, 208, 209, 210, 211, 212, 213, 214, 215, 216, 217, 218, 219, 220, 221, 222, 223, 224, 225, 226, 227, 228, 229, 230, 231, 232, 233, 234, 235, 236, 237, 238, 239, 240, 241, 242, 243, 244, 245, 246, 247, 248, 249, 250, 251, 252, 253, 254, 255, 256, 257, 258, 259, 260, 261, 262, 263, 264, 265, 266, 267, 268, 269, 270, 271, 272, 273, 274, 275, 276, 277, 278, 279, 280, 281, 282, 283, 284, 285, 286, 287, 288, 289, 290, 291, 292, 293, 294, 295, 296, 297, 298, 299, 300, 301, 302, 303, 304, 305, 306, 307, 308, 309, 310, 311, 312, 313, 314, 315, 316, 317, 318, 319, 320, 321, 322, 323, 324, 325, 326, 327, 328, 329, 330],
      "LargestImagePixelValue": [3478, 3415, 3406, 3390, 3394, 3404, 3379, 3354, 3392, 3351, 3232, 3366, 3386, 3373, 3343, 3356, 3442, 3389, 3330, 3420, 3359, 3350, 3319, 3366, 3322, 3360, 3381, 3345, 3316, 3324, 3345, 3297, 3408, 3345, 3351, 3375, 3394, 3353, 3351, 3429, 3340, 3339, 3359, 3332, 3319, 3350, 3432, 3398, 3346, 3297, 3316, 3376, 3317, 3330, 3387, 3322, 3368, 3319, 3363, 3376, 3315, 3352, 3315, 3313, 3317, 3327, 3303, 3364, 3335, 3371, 3293, 3310, 3371, 3325, 3357, 3320, 3369, 3331, 3327, 3329, 3291, 3345, 3302, 3338, 3404, 3332, 3341, 3264, 3331, 3258, 3299, 3306, 3312, 3324, 3303, 3346, 3350, 3321, 3347, 3368, 3364, 3310, 3343, 3325, 3311, 3375, 3307, 3320, 3297, 3310, 3309, 3376, 3325, 3380, 3353, 3306, 3318, 3340, 3356, 3359, 3325, 3341, 3345, 3330, 3323, 3342, 3331, 3408, 3324, 3338, 3357, 3340, 3333, 3343, 3347, 3323, 3357, 3363, 3379, 3345, 3345, 3298, 3383, 3305, 3292, 3373, 3367, 3367, 3320, 3348, 3322, 3316, 3333, 3333, 3322, 3301, 3358, 3285, 3349, 3312, 3314, 3269, 3376, 3265, 3283, 3336, 3308, 3253, 3243, 3255, 3289, 3246, 3275, 3273, 3237, 3279, 3230, 3298, 3250, 3263, 3288, 3291, 3305, 3337, 3276, 3324, 3279, 3293, 3250, 3256, 3242, 3284, 3249, 3247, 3264, 3282, 3301, 3299, 3309, 3300, 3307, 3314, 3331, 3303, 3311, 3249, 3296, 3266, 3261, 3220, 3304, 3250, 3322, 3278, 3193, 3231, 3254, 3278, 3301, 3196, 3234, 3207, 3257, 3170, 3224, 3226, 3200, 3203, 3177, 3188, 3202, 3248, 3205, 3261, 3210, 3213, 3225, 3171, 3205, 3248, 3190, 3292, 3225, 3207, 3244, 3158, 3236, 3221, 3239, 3216, 3204, 3195, 3234, 3253, 3228, 3187, 3205, 3155, 3227, 3239, 3262, 3220, 3269, 3181, 3207, 3228, 3212, 3213, 3231, 3249, 3268, 3213, 3169, 3238, 3202, 3137, 3167, 3214, 3252, 3200, 3221, 3292, 3279, 3272, 3320, 3212, 3237, 3256, 3247, 3274, 3220, 3259, 3221, 3274, 3287, 3225, 3177, 3202, 3250, 3238, 3273, 3264, 3191, 3266, 3216, 3251, 3208, 3286, 3265, 3243, 3300, 3175, 3259, 3265, 3203, 3217, 3277, 3251, 3257, 3218, 3183, 3221, 3252, 3284, 3276, 3228, 3221, 3218, 3240, 3242],
      "WindowCenter": [440.0, 437.0, 437.0, 437.0, 437.0, 437.0, 437.0, 436.0, 436.0, 436.0, 434.0, 436.0, 437.0, 438.0, 439.0, 439.0, 440.0, 438.0, 437.0, 438.0, 437.0, 436.0, 435.0, 436.0, 435.0, 437.0, 437.0, 436.0, 436.0, 436.0, 436.0, 435.0, 437.0, 436.0, 437.0, 436.0, 436.0, 435.0, 435.0, 436.0, 436.0, 435.0, 435.0, 434.0, 434.0, 434.0, 436.0, 437.0, 437.0, 436.0, 436.0, 436.0, 434.0, 434.0, 435.0, 434.0, 436.0, 437.0, 438.0, 438.0, 437.0, 436.0, 436.0, 436.0, 435.0, 436.0, 437.0, 438.0, 438.0, 438.0, 435.0, 435.0, 434.0, 433.0, 433.0, 433.0, 434.0, 435.0, 435.0, 435.0, 435.0, 435.0, 434.0, 435.0, 437.0, 436.0, 437.0, 435.0, 436.0, 433.0, 434.0, 433.0, 434.0, 433.0, 433.0, 435.0, 438.0, 438.0, 438.0, 438.0, 436.0, 436.0, 435.0, 435.0, 435.0, 436.0, 435.0, 436.0, 435.0, 436.0, 436.0, 438.0, 437.0, 437.0, 436.0, 435.0, 435.0, 436.0, 437.0, 438.0, 437.0, 436.0, 436.0, 435.0, 436.0, 438.0, 437.0, 438.0, 437.0, 436.0, 436.0, 436.0, 435.0, 436.0, 437.0, 437.0, 437.0, 436.0, 436.0, 436.0, 436.0, 437.0, 439.0, 437.0, 437.0, 438.0, 438.0, 438.0, 438.0, 438.0, 437.0, 437.0, 436.0, 436.0, 434.0, 434.0, 436.0, 436.0, 437.0, 437.0, 435.0, 433.0, 435.0, 433.0, 435.0, 437.0, 437.0, 437.0, 436.0, 435.0, 434.0, 433.0, 433.0, 433.0, 433.0, 434.0, 434.0, 435.0, 435.0, 435.0, 435.0, 435.0, 435.0, 437.0, 435.0, 436.0, 435.0, 435.0, 435.0, 435.0, 435.0, 436.0, 435.0, 435.0, 436.0, 437.0, 437.0, 437.0, 436.0, 435.0, 435.0, 434.0, 435.0, 436.0, 436.0, 434.0, 435.0, 434.0, 434.0, 434.0, 436.0, 436.0, 437.0, 436.0, 434.0, 434.0, 433.0, 435.0, 436.0, 435.0, 437.0, 437.0, 436.0, 435.0, 435.0, 434.0, 434.0, 434.0, 434.0, 434.0, 433.0, 434.0, 434.0, 435.0, 436.0, 436.0, 435.0, 434.0, 434.0, 436.0, 436.0, 439.0, 437.0, 435.0, 435.0, 433.0, 433.0, 433.0, 434.0, 435.0, 434.0, 435.0, 436.0, 436.0, 436.0, 435.0, 435.0, 433.0, 433.0, 433.0, 433.0, 434.0, 435.0, 435.0, 436.0, 436.0, 435.0, 434.0, 434.0, 434.0, 436.0, 436.0, 435.0, 436.0, 434.0, 433.0, 433.0, 434.0, 435.0, 435.0, 436.0, 437.0, 436.0, 435.0, 435.0, 434.0, 434.0, 435.0, 435.0, 436.0, 434.0, 435.0, 434.0, 435.0, 435.0, 434.0, 434.0, 435.0, 436.0, 436.0, 436.0, 436.0, 435.0, 435.0, 434.0, 435.0, 433.0, 435.0, 435.0, 436.0, 438.0, 436.0, 436.0, 436.0, 435.0, 435.0, 436.0, 437.0, 436.0, 435.0, 434.0, 433.0, 434.0, 435.0, 436.0, 435.0, 435.0, 435.0, 434.0, 434.0],
