{
  "AcquisitionMatrixPE": 104,
  "AcquisitionNumber": 1,
  "AcquisitionTime": "14:31:45.810000",
  "BandwidthPerPixelPhaseEncode": 43.054,
  "BaseResolution": 104,
  "CoilString": "C:E1_2",
  "ConversionSoftware": "dcm2niix",
  "ConversionSoftwareVersion": "v1.0.20191031",
  "DerivedVendorReportedEchoSpacing": 0.000669999,
  "DeviceSerialNumber": "18932",
  "DwellTime": 2.8e-06,
  "EchoTime": 0.02,
  "EffectiveEchoSpacing": 0.000223333,
  "FlipAngle": 30,
  "ImageComments": "Unaliased_MB2_PE2",
  "ImageOrientationPatientDICOM": [1, 0, 0, 0, 0.989272, -0.146083],
  "ImageType": [
    "ORIGINAL",
    "PRIMARY",
    "M",
    "MB",
    "ND",
    "MOSAIC"
],
  "ImagingFrequency": 297.229,
  "InPlanePhaseEncodingDirectionDICOM": "COL",
  "InstitutionAddress": "Richmond_Street_North_1151_London_409EF2_Ontario_CA_N6A_5B7",
  "InstitutionName": "Robarts_Reserch_Institute",
  "InstitutionalDepartmentName": "Department",
  "MRAcquisitionType": "2D",
  "MagneticFieldStrength": 6.98,
  "Manufacturer": "Siemens",
  "ManufacturersModelName": "Investigational_Device_7T",
  "Modality": "MR",
  "MultibandAccelerationFactor": 2,
  "ParallelReductionFactorInPlane": 3,
  "PartialFourier": 0.875,
  "PatientPosition": "HFS",
  "PercentPhaseFOV": 100,
  "PhaseEncodingDirection": "j-",
  "PhaseEncodingSteps": 91,
  "PhaseResolution": 1,
  "PixelBandwidth": 1717,
  "ProcedureStepDescription": "Diedrichsen_SeqRep4",
  "ProtocolName": "mbep2d_bold_mb2_p3_AP_2iso",
  "PulseSequenceDetails": "%CustomerSeq%_cmrr_mbep2d_bold",
  "ReceiveCoilName": "CFMM_8Tx32Rx",
  "ReconMatrixPE": 104,
  "RefLinesPE": 36,
  "RepetitionTime": 1,
  "ScanOptions": "PFP_FS",
  "ScanningSequence": "EP",
  "SequenceName": "epfid2d1_104",
  "SequenceVariant": "SK_SS",
  "SeriesDescription": "mbep2d_bold_mb2_p3_AP_2iso",
  "SeriesNumber": 15,
  "ShimSetting": [1, 2087, 40, 1507, 44, 88, 447, -102],
  "SliceThickness": 2,
  "SliceTiming": [0, 0.2275, 0.4575, 0.685, 0.9125, 0.1375, 0.365, 0.5925, 0.8225, 0.045, 0.275, 0.5025, 0.73, 0.9575, 0.1825, 0.41, 0.64, 0.8675, 0.0925, 0.32, 0.5475, 0.775, 0, 0.2275, 0.4575, 0.685, 0.9125, 0.1375, 0.365, 0.5925, 0.8225, 0.045, 0.275, 0.5025, 0.73, 0.9575, 0.1825, 0.41, 0.64, 0.8675, 0.0925, 0.32, 0.5475, 0.775],
  "SoftwareVersions": "syngo_MR_B17",
  "SpacingBetweenSlices": 2,
  "StationName": "MASTER",
  "TaskName": "dsp",
  "TotalReadoutTime": 0.0230033,
  "TxRefAmp": 120,
  "dcmmeta_affine": [
    [-2.0, 0.0, 0.0, 107.6319580078125],
    [0.0, 1.9785447120666504, -0.2921660542488098, -114.23896789550781],
    [0.0, 0.2921660542488098, 1.9785445928573608, -47.31913375854492],
    [0.0, 0.0, 0.0, 1.0]
],
  "dcmmeta_reorient_transform": [
    [0.0, -1.0, 0.0, 103.0],
    [1.0, 0.0, 0.0, 0.0],
    [0.0, 0.0, 1.0, 0.0],
    [0.0, 0.0, 0.0, 1.0]
],
  "dcmmeta_shape": [104, 104, 44, 330],
  "dcmmeta_slice_dim": 2,
  "dcmmeta_version": 0.6,
  "global": {
    "const": {
      "AcquisitionMatrix": [104, 0, 0, 104],
      "AngioFlag": "N",
      "BitsAllocated": 16,
      "BitsStored": 12,
      "Columns": 728,
      "EchoNumbers": 1,
      "EchoTime": 20.0,
      "EchoTrainLength": 1,
      "FlipAngle": 30.0,
      "HighBit": 11,
      "ImageOrientationPatient": [1.0, 0.0, 0.0, 0.0, 0.98927233216483, -0.1460830339675],
      "ImagePositionPatient": [-731.63196134567, -706.85706880538, 73.929785703438],
      "ImageType": [
        "ORIGINAL",
        "PRIMARY",
        "M",
        "MB",
        "ND",
        "MOSAIC"
],
      "ImagedNucleus": "1H",
      "ImagingFrequency": 297.228786,
      "InPlanePhaseEncodingDirection": "COL",
      "MRAcquisitionType": "2D",
      "MagneticFieldStrength": 6.98,
      "Manufacturer": "SIEMENS",
      "ManufacturerModelName": "Investigational_Device_7T",
      "Modality": "MR",
      "NumberOfAverages": 1.0,
      "NumberOfPhaseEncodingSteps": 91,
      "PercentPhaseFieldOfView": 100.0,
      "PercentSampling": 100.0,
      "PerformedProcedureStepStartTime": "140116.046000",
      "PhotometricInterpretation": "MONOCHROME2",
      "PixelBandwidth": 1717.0,
      "PixelRepresentation": 0,
      "PixelSpacing": [2.0, 2.0],
      "ProtocolName": "mbep2d_bold_mb2_p3_AP 2iso",
      "RepetitionTime": 1000.0,
      "Rows": 728,
      "SAR": 0.0,
      "SamplesPerPixel": 1,
      "ScanOptions": [
        "PFP",
        "FS"
],
      "ScanningSequence": "EP",
      "SequenceName": "epfid2d1_104",
      "SequenceVariant": [
        "SK",
        "SS"
],
      "SeriesDescription": "mbep2d_bold_mb2_p3_AP 2iso",
      "SeriesNumber": 15,
      "SeriesTime": "143153.390000",
      "SliceLocation": -30.123133673177,
      "SliceThickness": 2.0,
      "SmallestImagePixelValue": 0,
      "SoftwareVersions": "syngo MR B17",
      "SpacingBetweenSlices": 1.9999999702561,
      "SpecificCharacterSet": "ISO_IR 100",
      "StudyID": "1",
      "StudyTime": "140116.000000",
      "TransmitCoilName": "CFMM_8Tx32Rx",
      "VariableFlipAngleFlag": "N",
      "WindowCenterWidthExplanation": "Algo1",
      "dBdt": 0.0},
    "slices": {}
  },
  "time": {
    "samples": {
      "AcquisitionNumber": [1, 2, 3, 4, 5, 6, 7, 8, 9, 10, 11, 12, 13, 14, 15, 16, 17, 18, 19, 20, 21, 22, 23, 24, 25, 26, 27, 28, 29, 30, 31, 32, 33, 34, 35, 36, 37, 38, 39, 40, 41, 42, 43, 44, 45, 46, 47, 48, 49, 50, 51, 52, 53, 54, 55, 56, 57, 58, 59, 60, 61, 62, 63, 64, 65, 66, 67, 68, 69, 70, 71, 72, 73, 74, 75, 76, 77, 78, 79, 80, 81, 82, 83, 84, 85, 86, 87, 88, 89, 90, 91, 92, 93, 94, 95, 96, 97, 98, 99, 100, 101, 102, 103, 104, 105, 106, 107, 108, 109, 110, 111, 112, 113, 114, 115, 116, 117, 118, 119, 120, 121, 122, 123, 124, 125, 126, 127, 128, 129, 130, 131, 132, 133, 134, 135, 136, 137, 138, 139, 140, 141, 142, 143, 144, 145, 146, 147, 148, 149, 150, 151, 152, 153, 154, 155, 156, 157, 158, 159, 160, 161, 162, 163, 164, 165, 166, 167, 168, 169, 170, 171, 172, 173, 174, 175, 176, 177, 178, 179, 180, 181, 182, 183, 184, 185, 186, 187, 188, 189, 190, 191, 192, 193, 194, 195, 196, 197, 198, 199, 200, 201, 202, 203, 204, 205, 206, 207, 208, 209, 210, 211, 212, 213, 214, 215, 216, 217, 218, 219, 220, 221, 222, 223, 224, 225, 226, 227, 228, 229, 230, 231, 232, 233, 234, 235, 236, 237, 238, 239, 240, 241, 242, 243, 244, 245, 246, 247, 248, 249, 250, 251, 252, 253, 254, 255, 256, 257, 258, 259, 260, 261, 262, 263, 264, 265, 266, 267, 268, 269, 270, 271, 272, 273, 274, 275, 276, 277, 278, 279, 280, 281, 282, 283, 284, 285, 286, 287, 288, 289, 290, 291, 292, 293, 294, 295, 296, 297, 298, 299, 300, 301, 302, 303, 304, 305, 306, 307, 308, 309, 310, 311, 312, 313, 314, 315, 316, 317, 318, 319, 320, 321, 322, 323, 324, 325, 326, 327, 328, 329, 330],
      "AcquisitionTime": ["143145.810000", "143146.815000", "143147.817500", "143148.822500", "143149.827500", "143150.830000", "143151.835000", "143152.837500", "143153.842500", "143154.847500", "143155.850000", "143156.855000", "143157.857500", "143158.862500", "143159.867500", "143200.870000", "143201.875000", "143202.877500", "143203.882500", "143204.887500", "143205.890000", "143206.895000", "143207.897500", "143208.902500", "143209.907500", "143210.910000", "143211.915000", "143212.917500", "143213.922500", "143214.927500", "143215.930000", "143216.935000", "143217.940000", "143218.942500", "143219.947500", "143220.950000", "143221.955000", "143222.960000", "143223.962500", "143224.967500", "143225.970000", "143226.975000", "143227.980000", "143228.982500", "143229.987500", "143230.990000", "143231.995000", "143233.000000", "143234.002500", "143235.007500", "143236.010000", "143237.015000", "143238.020000", "143239.022500", "143240.027500", "143241.030000", "143242.035000", "143243.040000", "143244.042500", "143245.047500", "143246.052500", "143247.055000", "143248.060000", "143249.062500", "143250.067500", "143251.072500", "143252.075000", "143253.080000", "143254.082500", "143255.087500", "143256.092500", "143257.095000", "143258.100000", "143259.102500", "143300.107500", "143301.112500", "143302.115000", "143303.120000", "143304.122500", "143305.127500", "143306.132500", "143307.135000", "143308.140000", "143309.142500", "143310.147500", "143311.152500", "143312.155000", "143313.160000", "143314.162500", "143315.167500", "143316.172500", "143317.175000", "143318.180000", "143319.185000", "143320.187500", "143321.192500", "143322.195000", "143323.200000", "143324.205000", "143325.207500", "143326.212500", "143327.215000", "143328.220000", "143329.225000", "143330.227500", "143331.232500", "143332.235000", "143333.240000", "143334.245000", "143335.247500", "143336.252500", "143337.255000", "143338.260000", "143339.265000", "143340.267500", "143341.272500", "143342.275000", "143343.280000", "143344.285000", "143345.287500", "143346.292500", "143347.295000", "143348.300000", "143349.305000", "143350.307500", "143351.312500", "143352.317500", "143353.320000", "143354.325000", "143355.327500", "143356.332500", "143357.337500", "143358.340000", "143359.345000", "143400.347500", "143401.352500", "143402.357500", "143403.360000", "143404.365000", "143405.367500", "143406.372500", "143407.377500", "143408.380000", "143409.385000", "143410.387500", "143411.392500", "143412.397500", "143413.400000", "143414.405000", "143415.407500", "143416.412500", "143417.417500", "143418.420000", "143419.425000", "143420.430000", "143421.432500", "143422.437500", "143423.440000", "143424.445000", "143425.450000", "143426.452500", "143427.457500", "143428.460000", "143429.465000", "143430.470000", "143431.472500", "143432.477500", "143433.480000", "143434.485000", "143435.490000", "143436.492500", "143437.497500", "143438.500000", "143439.505000", "143440.510000", "143441.512500", "143442.517500", "143443.520000", "143444.525000", "143445.530000", "143446.532500", "143447.537500", "143448.540000", "143449.545000", "143450.550000", "143451.552500", "143452.557500", "143453.562500", "143454.565000", "143455.570000", "143456.572500", "143457.577500", "143458.582500", "143459.585000", "143500.590000", "143501.592500", "143502.597500", "143503.602500", "143504.605000", "143505.610000", "143506.612500", "143507.617500", "143508.622500", "143509.625000", "143510.630000", "143511.632500", "143512.637500", "143513.642500", "143514.645000", "143515.650000", "143516.652500", "143517.657500", "143518.662500", "143519.665000", "143520.670000", "143521.675000", "143522.677500", "143523.682500", "143524.685000", "143525.690000", "143526.695000", "143527.697500", "143528.702500", "143529.705000", "143530.710000", "143531.715000", "143532.717500", "143533.722500", "143534.725000", "143535.730000", "143536.735000", "143537.737500", "143538.742500", "143539.745000", "143540.750000", "143541.755000", "143542.757500", "143543.762500", "143544.765000", "143545.770000", "143546.775000", "143547.777500", "143548.782500", "143549.785000", "143550.790000", "143551.795000", "143552.797500", "143553.802500", "143554.807500", "143555.810000", "143556.815000", "143557.817500", "143558.822500", "143559.827500", "143600.830000", "143601.835000", "143602.837500", "143603.842500", "143604.847500", "143605.850000", "143606.855000", "143607.857500", "143608.862500", "143609.867500", "143610.870000", "143611.875000", "143612.877500", "143613.882500", "143614.887500", "143615.890000", "143616.895000", "143617.897500", "143618.902500", "143619.907500", "143620.910000", "143621.915000", "143622.917500", "143623.922500", "143624.927500", "143625.930000", "143626.935000", "143627.940000", "143628.942500", "143629.947500", "143630.950000", "143631.955000", "143632.960000", "143633.962500", "143634.967500", "143635.970000", "143636.975000", "143637.980000", "143638.982500", "143639.987500", "143640.990000", "143641.995000", "143643.000000", "143644.002500", "143645.007500", "143646.010000", "143647.015000", "143648.020000", "143649.022500", "143650.027500", "143651.030000", "143652.035000", "143653.040000", "143654.042500", "143655.047500", "143656.052500", "143657.055000", "143658.060000", "143659.062500", "143700.067500", "143701.072500", "143702.075000", "143703.080000", "143704.082500", "143705.087500", "143706.092500", "143707.095000", "143708.100000", "143709.102500", "143710.107500", "143711.112500", "143712.115000", "143713.120000", "143714.122500", "143715.127500", "143716.132500"],
      "ContentTime": ["143153.390000", "143153.406000", "143153.406000", "143153.406000", "143153.406000", "143153.406000", "143153.406000", "143213.359000", "143213.359000", "143213.375000", "143213.375000", "143213.375000", "143213.375000", "143213.375000", "143213.375000", "143213.390000", "143213.390000", "143213.390000", "143213.390000", "143213.390000", "143213.390000", "143213.390000", "143213.406000", "143213.406000", "143213.406000", "143213.406000", "143213.406000", "143233.359000", "143233.359000", "143233.375000", "143233.375000", "143233.375000", "143233.375000", "143233.375000", "143233.375000", "143233.375000", "143233.375000", "143233.390000", "143233.390000", "143233.390000", "143233.390000", "143233.390000", "143233.390000", "143233.390000", "143233.406000", "143233.406000", "143233.406000", "143253.359000", "143253.359000", "143253.359000", "143253.375000", "143253.375000", "143253.375000", "143253.390000", "143253.390000", "143253.390000", "143253.390000", "143253.390000", "143253.390000", "143253.390000", "143253.406000", "143253.406000", "143253.406000", "143253.406000", "143253.406000", "143253.406000", "143253.421000", "143313.359000", "143313.359000", "143313.359000", "143313.375000", "143313.375000", "143313.375000", "143313.375000", "143313.375000", "143313.375000", "143313.375000", "143313.390000", "143313.390000", "143313.390000", "143313.390000", "143313.390000", "143313.390000", "143313.390000", "143313.390000", "143313.406000", "143313.406000", "143333.359000", "143333.359000", "143333.375000", "143333.375000", "143333.375000", "143333.375000", "143333.375000", "143333.375000", "143333.375000", "143333.375000", "143333.390000", "143333.390000", "143333.390000", "143333.390000", "143333.390000", "143333.390000", "143333.390000", "143333.406000", "143333.406000", "143333.406000", "143353.359000", "143353.359000", "143353.359000", "143353.375000", "143353.375000", "143353.375000", "143353.375000", "143353.375000", "143353.375000", "143353.375000", "143353.390000", "143353.390000", "143353.390000", "143353.390000", "143353.390000", "143353.390000", "143353.390000", "143353.406000", "143353.406000", "143353.406000", "143413.359000", "143413.359000", "143413.375000", "143413.375000", "143413.375000", "143413.375000", "143413.375000", "143413.375000", "143413.390000", "143413.390000", "143413.390000", "143413.390000", "143413.390000", "143413.390000", "143413.406000", "143413.406000", "143413.406000", "143413.406000", "143413.406000", "143413.421000", "143433.359000", "143433.359000", "143433.375000", "143433.375000", "143433.375000", "143433.375000", "143433.375000", "143433.375000", "143433.375000", "143433.390000", "143433.390000", "143433.390000", "143433.390000", "143433.390000", "143433.390000", "143433.390000", "143433.406000", "143433.406000", "143433.406000", "143433.406000", "143453.359000", "143453.359000", "143453.375000", "143453.375000", "143453.375000", "143453.375000", "143453.375000", "143453.375000", "143453.390000", "143453.390000", "143453.390000", "143453.390000", "143453.390000", "143453.390000", "143453.406000", "143453.406000", "143453.406000", "143453.406000", "143453.406000", "143453.406000", "143513.359000", "143513.359000", "143513.375000", "143513.375000", "143513.375000", "143513.375000", "143513.375000", "143513.375000", "143513.375000", "143513.375000", "143513.390000", "143513.390000", "143513.390000", "143513.390000", "143513.390000", "143513.390000", "143513.390000", "143513.406000", "143513.406000", "143513.406000", "143533.359000", "143533.359000", "143533.375000", "143533.375000", "143533.375000", "143533.375000", "143533.375000", "143533.375000", "143533.375000", "143533.375000", "143533.390000", "143533.390000", "143533.390000", "143533.390000", "143533.390000", "143533.390000", "143533.406000", "143533.406000", "143533.406000", "143533.421000", "143553.359000", "143553.359000", "143553.375000", "143553.375000", "143553.375000", "143553.375000", "143553.375000", "143553.375000", "143553.375000", "143553.375000", "143553.390000", "143553.390000", "143553.390000", "143553.390000", "143553.390000", "143553.406000", "143553.406000", "143553.406000", "143553.406000", "143553.406000", "143613.359000", "143613.359000", "143613.375000", "143613.375000", "143613.375000", "143613.375000", "143613.375000", "143613.375000", "143613.390000", "143613.390000", "143613.390000", "143613.390000", "143613.390000", "143613.390000", "143613.390000", "143613.406000", "143613.406000", "143613.406000", "143613.406000", "143613.406000", "143633.359000", "143633.359000", "143633.375000", "143633.375000", "143633.375000", "143633.375000", "143633.375000", "143633.375000", "143633.390000", "143633.390000", "143633.406000", "143633.406000", "143633.406000", "143633.406000", "143633.406000", "143633.406000", "143633.406000", "143633.406000", "143633.421000", "143633.421000", "143653.359000", "143653.375000", "143653.375000", "143653.375000", "143653.375000", "143653.375000", "143653.375000", "143653.375000", "143653.390000", "143653.390000", "143653.390000", "143653.390000", "143653.390000", "143653.390000", "143653.390000", "143653.406000", "143653.406000", "143653.406000", "143653.406000", "143653.406000", "143713.359000", "143713.359000", "143713.375000", "143713.375000", "143713.375000", "143713.375000", "143713.375000", "143713.375000", "143713.375000", "143713.375000", "143713.390000", "143713.390000", "143713.390000", "143713.390000", "143713.390000", "143713.406000", "143713.406000", "143713.406000", "143713.406000", "143713.406000", "143721.218000", "143721.218000", "143721.218000"],
      "InstanceCreationTime": ["143153.390000", "143153.406000", "143153.406000", "143153.406000", "143153.406000", "143153.406000", "143153.406000", "143213.359000", "143213.359000", "143213.375000", "143213.375000", "143213.375000", "143213.375000", "143213.375000", "143213.375000", "143213.390000", "143213.390000", "143213.390000", "143213.390000", "143213.390000", "143213.390000", "143213.390000", "143213.406000", "143213.406000", "143213.406000", "143213.406000", "143213.406000", "143233.359000", "143233.359000", "143233.375000", "143233.375000", "143233.375000", "143233.375000", "143233.375000", "143233.375000", "143233.375000", "143233.375000", "143233.390000", "143233.390000", "143233.390000", "143233.390000", "143233.390000", "143233.390000", "143233.390000", "143233.406000", "143233.406000", "143233.406000", "143253.359000", "143253.359000", "143253.359000", "143253.375000", "143253.375000", "143253.375000", "143253.390000", "143253.390000", "143253.390000", "143253.390000", "143253.390000", "143253.390000", "143253.390000", "143253.406000", "143253.406000", "143253.406000", "143253.406000", "143253.406000", "143253.406000", "143253.421000", "143313.359000", "143313.359000", "143313.359000", "143313.375000", "143313.375000", "143313.375000", "143313.375000", "143313.375000", "143313.375000", "143313.375000", "143313.390000", "143313.390000", "143313.390000", "143313.390000", "143313.390000", "143313.390000", "143313.390000", "143313.390000", "143313.406000", "143313.406000", "143333.359000", "143333.359000", "143333.375000", "143333.375000", "143333.375000", "143333.375000", "143333.375000", "143333.375000", "143333.375000", "143333.375000", "143333.390000", "143333.390000", "143333.390000", "143333.390000", "143333.390000", "143333.390000", "143333.390000", "143333.406000", "143333.406000", "143333.406000", "143353.359000", "143353.359000", "143353.359000", "143353.375000", "143353.375000", "143353.375000", "143353.375000", "143353.375000", "143353.375000", "143353.375000", "143353.390000", "143353.390000", "143353.390000", "143353.390000", "143353.390000", "143353.390000", "143353.390000", "143353.406000", "143353.406000", "143353.406000", "143413.359000", "143413.359000", "143413.375000", "143413.375000", "143413.375000", "143413.375000", "143413.375000", "143413.375000", "143413.390000", "143413.390000", "143413.390000", "143413.390000", "143413.390000", "143413.390000", "143413.406000", "143413.406000", "143413.406000", "143413.406000", "143413.406000", "143413.421000", "143433.359000", "143433.359000", "143433.375000", "143433.375000", "143433.375000", "143433.375000", "143433.375000", "143433.375000", "143433.375000", "143433.390000", "143433.390000", "143433.390000", "143433.390000", "143433.390000", "143433.390000", "143433.390000", "143433.406000", "143433.406000", "143433.406000", "143433.406000", "143453.359000", "143453.359000", "143453.375000", "143453.375000", "143453.375000", "143453.375000", "143453.375000", "143453.375000", "143453.390000", "143453.390000", "143453.390000", "143453.390000", "143453.390000", "143453.390000", "143453.406000", "143453.406000", "143453.406000", "143453.406000", "143453.406000", "143453.406000", "143513.359000", "143513.359000", "143513.375000", "143513.375000", "143513.375000", "143513.375000", "143513.375000", "143513.375000", "143513.375000", "143513.375000", "143513.390000", "143513.390000", "143513.390000", "143513.390000", "143513.390000", "143513.390000", "143513.390000", "143513.406000", "143513.406000", "143513.406000", "143533.359000", "143533.359000", "143533.375000", "143533.375000", "143533.375000", "143533.375000", "143533.375000", "143533.375000", "143533.375000", "143533.375000", "143533.390000", "143533.390000", "143533.390000", "143533.390000", "143533.390000", "143533.390000", "143533.406000", "143533.406000", "143533.406000", "143533.421000", "143553.359000", "143553.359000", "143553.375000", "143553.375000", "143553.375000", "143553.375000", "143553.375000", "143553.375000", "143553.375000", "143553.375000", "143553.390000", "143553.390000", "143553.390000", "143553.390000", "143553.390000", "143553.406000", "143553.406000", "143553.406000", "143553.406000", "143553.406000", "143613.359000", "143613.359000", "143613.375000", "143613.375000", "143613.375000", "143613.375000", "143613.375000", "143613.375000", "143613.390000", "143613.390000", "143613.390000", "143613.390000", "143613.390000", "143613.390000", "143613.390000", "143613.406000", "143613.406000", "143613.406000", "143613.406000", "143613.406000", "143633.359000", "143633.359000", "143633.375000", "143633.375000", "143633.375000", "143633.375000", "143633.375000", "143633.375000", "143633.390000", "143633.390000", "143633.406000", "143633.406000", "143633.406000", "143633.406000", "143633.406000", "143633.406000", "143633.406000", "143633.406000", "143633.421000", "143633.421000", "143653.359000", "143653.375000", "143653.375000", "143653.375000", "143653.375000", "143653.375000", "143653.375000", "143653.375000", "143653.390000", "143653.390000", "143653.390000", "143653.390000", "143653.390000", "143653.390000", "143653.390000", "143653.406000", "143653.406000", "143653.406000", "143653.406000", "143653.406000", "143713.359000", "143713.359000", "143713.375000", "143713.375000", "143713.375000", "143713.375000", "143713.375000", "143713.375000", "143713.375000", "143713.375000", "143713.390000", "143713.390000", "143713.390000", "143713.390000", "143713.390000", "143713.406000", "143713.406000", "143713.406000", "143713.406000", "143713.406000", "143721.218000", "143721.218000", "143721.218000"],
      "InstanceNumber": [1, 2, 3, 4, 5, 6, 7, 8, 9, 10, 11, 12, 13, 14, 15, 16, 17, 18, 19, 20, 21, 22, 23, 24, 25, 26, 27, 28, 29, 30, 31, 32, 33, 34, 35, 36, 37, 38, 39, 40, 41, 42, 43, 44, 45, 46, 47, 48, 49, 50, 51, 52, 53, 54, 55, 56, 57, 58, 59, 60, 61, 62, 63, 64, 65, 66, 67, 68, 69, 70, 71, 72, 73, 74, 75, 76, 77, 78, 79, 80, 81, 82, 83, 84, 85, 86, 87, 88, 89, 90, 91, 92, 93, 94, 95, 96, 97, 98, 99, 100, 101, 102, 103, 104, 105, 106, 107, 108, 109, 110, 111, 112, 113, 114, 115, 116, 117, 118, 119, 120, 121, 122, 123, 124, 125, 126, 127, 128, 129, 130, 131, 132, 133, 134, 135, 136, 137, 138, 139, 140, 141, 142, 143, 144, 145, 146, 147, 148, 149, 150, 151, 152, 153, 154, 155, 156, 157, 158, 159, 160, 161, 162, 163, 164, 165, 166, 167, 168, 169, 170, 171, 172, 173, 174, 175, 176, 177, 178, 179, 180, 181, 182, 183, 184, 185, 186, 187, 188, 189, 190, 191, 192, 193, 194, 195, 196, 197, 198, 199, 200, 201, 202, 203, 204, 205, 206, 207, 208, 209, 210, 211, 212, 213, 214, 215, 216, 217, 218, 219, 220, 221, 222, 223, 224, 225, 226, 227, 228, 229, 230, 231, 232, 233, 234, 235, 236, 237, 238, 239, 240, 241, 242, 243, 244, 245, 246, 247, 248, 249, 250, 251, 252, 253, 254, 255, 256, 257, 258, 259, 260, 261, 262, 263, 264, 265, 266, 267, 268, 269, 270, 271, 272, 273, 274, 275, 276, 277, 278, 279, 280, 281, 282, 283, 284, 285, 286, 287, 288, 289, 290, 291, 292, 293, 294, 295, 296, 297, 298, 299, 300, 301, 302, 303, 304, 305, 306, 307, 308, 309, 310, 311, 312, 313, 314, 315, 316, 317, 318, 319, 320, 321, 322, 323, 324, 325, 326, 327, 328, 329, 330],
      "LargestImagePixelValue": [3338, 3327, 3314, 3295, 3230, 3296, 3340, 3294, 3255, 3249, 3158, 3272, 3325, 3174, 3228, 3183, 3274, 3327, 3236, 3260, 3278, 3310, 3303, 3252, 3226, 3278, 3205, 3255, 3253, 3203, 3239, 3254, 3173, 3206, 3265, 3191, 3293, 3307, 3263, 3263, 3242, 3236, 3268, 3276, 3211, 3256, 3168, 3248, 3234, 3199, 3234, 3255, 3273, 3285, 3250, 3190, 3222, 3192, 3194, 3277, 3247, 3303, 3247, 3229, 3280, 3297, 3263, 3236, 3237, 3222, 3193, 3305, 3232, 3325, 3181, 3213, 3312, 3303, 3292, 3255, 3250, 3307, 3265, 3251, 3232, 3237, 3237, 3264, 3262, 3298, 3236, 3280, 3319, 3247, 3264, 3297, 3210, 3278, 3166, 3238, 3294, 3230, 3222, 3234, 3164, 3157, 3218, 3227, 3256, 3196, 3213, 3261, 3261, 3167, 3239, 3197, 3263, 3301, 3297, 3277, 3258, 3298, 3274, 3246, 3255, 3284, 3299, 3289, 3250, 3248, 3268, 3278, 3230, 3271, 3201, 3246, 3313, 3199, 3303, 3335, 3234, 3312, 3218, 3184, 3254, 3248, 3190, 3245, 3232, 3263, 3303, 3283, 3267, 3231, 3200, 3174, 3217, 3267, 3251, 3277, 3210, 3228, 3246, 3199, 3237, 3285, 3230, 3244, 3278, 3220, 3257, 3292, 3186, 3228, 3164, 3116, 3209, 3316, 3178, 3214, 3238, 3280, 3219, 3239, 3141, 3199, 3248, 3147, 3343, 3235, 3250, 3223, 3228, 3241, 3251, 3193, 3257, 3265, 3289, 3206, 3226, 3293, 3221, 3240, 3293, 3255, 3306, 3276, 3227, 3235, 3280, 3230, 3300, 3262, 3233, 3215, 3287, 3193, 3235, 3122, 3267, 3277, 3191, 3269, 3200, 3251, 3225, 3240, 3265, 3235, 3257, 3289, 3242, 3230, 3241, 3201, 3335, 3278, 3301, 3277, 3214, 3272, 3227, 3275, 3287, 3222, 3315, 3247, 3267, 3284, 3171, 3351, 3280, 3269, 3290, 3282, 3219, 3273, 3314, 3272, 3261, 3251, 3302, 3237, 3230, 3280, 3228, 3279, 3179, 3272, 3308, 3280, 3328, 3226, 3261, 3314, 3215, 3292, 3201, 3231, 3262, 3297, 3317, 3271, 3267, 3261, 3310, 3236, 3307, 3213, 3264, 3357, 3330, 3260, 3339, 3287, 3331, 3408, 3278, 3415, 3361, 3352, 3372, 3267, 3277, 3289, 3354, 3326, 3357, 3248, 3305, 3335, 3286, 3307, 3277, 3357, 3307, 3261, 3257, 3274, 3255, 3289, 3301, 3347, 3282, 3273, 3368, 3279, 3268, 3349],
      "WindowCenter": [441.0, 439.0, 439.0, 439.0, 439.0, 440.0, 442.0, 441.0, 440.0, 439.0, 437.0, 437.0, 438.0, 437.0, 438.0, 439.0, 440.0, 441.0, 439.0, 439.0, 440.0, 440.0, 441.0, 440.0, 440.0, 440.0, 438.0, 438.0, 438.0, 438.0, 439.0, 440.0, 439.0, 440.0, 441.0, 439.0, 441.0, 441.0, 440.0, 440.0, 440.0, 439.0, 439.0, 440.0, 439.0, 440.0, 440.0, 441.0, 440.0, 439.0, 438.0, 439.0, 440.0, 440.0, 440.0, 439.0, 439.0, 438.0, 438.0, 440.0, 440.0, 440.0, 440.0, 439.0, 440.0, 440.0, 439.0, 438.0, 438.0, 438.0, 438.0, 439.0, 440.0, 441.0, 440.0, 440.0, 440.0, 440.0, 439.0, 440.0, 441.0, 443.0, 442.0, 442.0, 441.0, 440.0, 439.0, 440.0, 439.0, 439.0, 440.0, 440.0, 442.0, 441.0, 441.0, 441.0, 439.0, 440.0, 438.0, 438.0, 440.0, 441.0, 442.0, 443.0, 441.0, 441.0, 441.0, 441.0, 440.0, 440.0, 439.0, 440.0, 438.0, 437.0, 438.0, 438.0, 440.0, 439.0, 440.0, 440.0, 441.0, 442.0, 441.0, 439.0, 440.0, 440.0, 441.0, 441.0, 440.0, 440.0, 440.0, 440.0, 440.0, 440.0, 439.0, 439.0, 440.0, 439.0, 439.0, 441.0, 440.0, 442.0, 441.0, 439.0, 440.0, 438.0, 437.0, 438.0, 438.0, 439.0, 441.0, 442.0, 441.0, 441.0, 439.0, 438.0, 439.0, 439.0, 439.0, 441.0, 441.0, 441.0, 441.0, 439.0, 438.0, 439.0, 438.0, 438.0, 440.0, 441.0, 442.0, 442.0, 441.0, 441.0, 440.0, 439.0, 439.0, 440.0, 438.0, 440.0, 440.0, 440.0, 440.0, 442.0, 441.0, 441.0, 441.0, 439.0, 441.0, 440.0, 440.0, 441.0, 441.0, 441.0, 440.0, 439.0, 439.0, 439.0, 440.0, 441.0, 441.0, 441.0, 440.0, 440.0, 441.0, 440.0, 440.0, 440.0, 440.0, 440.0, 440.0, 439.0, 440.0, 441.0, 442.0, 443.0, 443.0, 442.0, 441.0, 438.0, 440.0, 439.0, 438.0, 440.0, 439.0, 440.0, 439.0, 440.0, 440.0, 440.0, 440.0, 442.0, 443.0, 443.0, 443.0, 440.0, 442.0, 440.0, 440.0, 440.0, 439.0, 441.0, 440.0, 441.0, 442.0, 441.0, 442.0, 441.0, 440.0, 440.0, 438.0, 440.0, 439.0, 438.0, 440.0, 441.0, 440.0, 441.0, 442.0, 441.0, 441.0, 440.0, 441.0, 439.0, 440.0, 441.0, 441.0, 442.0, 440.0, 441.0, 440.0, 440.0, 441.0, 441.0, 443.0, 443.0, 441.0, 441.0, 439.0, 438.0, 438.0, 439.0, 440.0, 441.0, 442.0, 443.0, 443.0, 441.0, 442.0, 439.0, 441.0, 444.0, 444.0, 442.0, 442.0, 440.0, 441.0, 442.0, 442.0, 445.0, 446.0, 446.0, 446.0, 443.0, 442.0, 441.0, 442.0, 442.0, 442.0, 441.0, 442.0, 442.0, 442.0, 443.0, 442.0, 443.0, 442.0, 441.0, 441.0, 441.0, 441.0, 441.0, 441.0, 442.0, 441.0, 441.0, 443.0, 441.0, 441.0, 442.0],
