{
  "AcquisitionMatrixPE": 104,
  "AcquisitionNumber": 1,
  "AcquisitionTime": "13:52:26.910000",
  "BandwidthPerPixelPhaseEncode": 43.054,
  "BaseResolution": 104,
  "CoilString": "C:E1_2",
  "ConversionSoftware": "dcm2niix",
  "ConversionSoftwareVersion": "v1.0.20191031",
  "DerivedVendorReportedEchoSpacing": 0.000669999,
  "DeviceSerialNumber": "18932",
  "DwellTime": 2.8e-06,
  "EchoTime": 0.02,
  "EffectiveEchoSpacing": 0.000223333,
  "FlipAngle": 30,
  "ImageComments": "Unaliased_MB2_PE2",
  "ImageOrientationPatientDICOM": [1, 0, 0, 0, 0.988756, -0.149535],
  "ImageType": [
    "ORIGINAL",
    "PRIMARY",
    "M",
    "MB",
    "ND",
    "MOSAIC"
],
  "ImagingFrequency": 297.229,
  "InPlanePhaseEncodingDirectionDICOM": "COL",
  "InstitutionAddress": "Richmond_Street_North_1151_London_409EF2_Ontario_CA_N6A_5B7",
  "InstitutionName": "Robarts_Reserch_Institute",
  "InstitutionalDepartmentName": "Department",
  "MRAcquisitionType": "2D",
  "MagneticFieldStrength": 6.98,
  "Manufacturer": "Siemens",
  "ManufacturersModelName": "Investigational_Device_7T",
  "Modality": "MR",
  "MultibandAccelerationFactor": 2,
  "ParallelReductionFactorInPlane": 3,
  "PartialFourier": 0.875,
  "PatientPosition": "HFS",
  "PercentPhaseFOV": 100,
  "PhaseEncodingDirection": "j-",
  "PhaseEncodingSteps": 91,
  "PhaseResolution": 1,
  "PixelBandwidth": 1717,
  "ProcedureStepDescription": "Diedrichsen_SeqRep4",
  "ProtocolName": "mbep2d_bold_mb2_p3_AP_2iso",
  "PulseSequenceDetails": "%CustomerSeq%_cmrr_mbep2d_bold",
  "ReceiveCoilName": "CFMM_8Tx32Rx",
  "ReconMatrixPE": 104,
  "RefLinesPE": 36,
  "RepetitionTime": 1,
  "ScanOptions": "PFP_FS",
  "ScanningSequence": "EP",
  "SequenceName": "epfid2d1_104",
  "SequenceVariant": "SK_SS",
  "SeriesDescription": "mbep2d_bold_mb2_p3_AP_2iso",
  "SeriesNumber": 33,
  "ShimSetting": [-16, 1963, 280, 451, 67, -195, -266, -123],
  "SliceThickness": 2,
  "SliceTiming": [0, 0.2275, 0.4575, 0.685, 0.9125, 0.1375, 0.365, 0.5925, 0.8225, 0.045, 0.275, 0.5025, 0.73, 0.9575, 0.1825, 0.41, 0.64, 0.8675, 0.0925, 0.32, 0.5475, 0.775, 0, 0.2275, 0.4575, 0.685, 0.9125, 0.1375, 0.365, 0.5925, 0.8225, 0.045, 0.275, 0.5025, 0.73, 0.9575, 0.1825, 0.41, 0.64, 0.8675, 0.0925, 0.32, 0.5475, 0.775],
  "SoftwareVersions": "syngo_MR_B17",
  "SpacingBetweenSlices": 2,
  "StationName": "MASTER",
  "TaskName": "dsp",
  "TotalReadoutTime": 0.0230033,
  "TxRefAmp": 120,
  "dcmmeta_affine": [
    [-2.0, 0.0, 0.0, 107.6319580078125],
    [0.0, 1.9775127172470093, -0.29907068610191345, -106.04757690429688],
    [0.0, 0.29907068610191345, 1.9775127172470093, -46.19629669189453],
    [0.0, 0.0, 0.0, 1.0]
],
  "dcmmeta_reorient_transform": [
    [0.0, -1.0, 0.0, 103.0],
    [1.0, 0.0, 0.0, 0.0],
    [0.0, 0.0, 1.0, 0.0],
    [0.0, 0.0, 0.0, 1.0]
],
  "dcmmeta_shape": [104, 104, 44, 330],
  "dcmmeta_slice_dim": 2,
  "dcmmeta_version": 0.6,
  "global": {
    "const": {
      "AcquisitionMatrix": [104, 0, 0, 104],
      "AngioFlag": "N",
      "BitsAllocated": 16,
      "BitsStored": 12,
      "Columns": 728,
      "EchoNumbers": 1,
      "EchoTime": 20.0,
      "EchoTrainLength": 1,
      "FlipAngle": 30.0,
      "HighBit": 11,
      "ImageOrientationPatient": [1.0, 0.0, 0.0, 0.0, 0.98875638160626, -0.1495353397458],
      "ImagePositionPatient": [-731.63196134567, -714.62022165698, 77.918034173961],
      "ImageType": [
        "ORIGINAL",
        "PRIMARY",
        "M",
        "MB",
        "ND",
        "MOSAIC"
],
      "ImagedNucleus": "1H",
      "ImagingFrequency": 297.229247,
      "InPlanePhaseEncodingDirection": "COL",
      "MRAcquisitionType": "2D",
      "MagneticFieldStrength": 6.98,
      "Manufacturer": "SIEMENS",
      "ManufacturerModelName": "Investigational_Device_7T",
      "Modality": "MR",
      "NumberOfAverages": 1.0,
      "NumberOfPhaseEncodingSteps": 91,
      "PercentPhaseFieldOfView": 100.0,
      "PercentSampling": 100.0,
      "PerformedProcedureStepStartTime": "123916.500000",
      "PhotometricInterpretation": "MONOCHROME2",
      "PixelBandwidth": 1717.0,
      "PixelRepresentation": 0,
      "PixelSpacing": [2.0, 2.0],
      "ProtocolName": "mbep2d_bold_mb2_p3_AP 2iso",
      "RepetitionTime": 1000.0,
      "Rows": 728,
      "SAR": 0.0,
      "SamplesPerPixel": 1,
      "ScanOptions": [
        "PFP",
        "FS"
],
      "ScanningSequence": "EP",
      "SequenceName": "epfid2d1_104",
      "SequenceVariant": [
        "SK",
        "SS"
],
      "SeriesDescription": "mbep2d_bold_mb2_p3_AP 2iso",
      "SeriesNumber": 33,
      "SeriesTime": "135303.328000",
      "SliceLocation": -29.819024103006,
      "SliceThickness": 2.0,
      "SmallestImagePixelValue": 0,
      "SoftwareVersions": "syngo MR B17",
      "SpacingBetweenSlices": 1.9999999990406,
      "SpecificCharacterSet": "ISO_IR 100",
      "StudyID": "1",
      "StudyTime": "123916.437000",
      "TransmitCoilName": "CFMM_8Tx32Rx",
      "VariableFlipAngleFlag": "N",
      "WindowCenterWidthExplanation": "Algo1",
      "dBdt": 0.0},
    "slices": {}
  },
  "time": {
    "samples": {
      "AcquisitionNumber": [1, 2, 3, 4, 5, 6, 7, 8, 9, 10, 11, 12, 13, 14, 15, 16, 17, 18, 19, 20, 21, 22, 23, 24, 25, 26, 27, 28, 29, 30, 31, 32, 33, 34, 35, 36, 37, 38, 39, 40, 41, 42, 43, 44, 45, 46, 47, 48, 49, 50, 51, 52, 53, 54, 55, 56, 57, 58, 59, 60, 61, 62, 63, 64, 65, 66, 67, 68, 69, 70, 71, 72, 73, 74, 75, 76, 77, 78, 79, 80, 81, 82, 83, 84, 85, 86, 87, 88, 89, 90, 91, 92, 93, 94, 95, 96, 97, 98, 99, 100, 101, 102, 103, 104, 105, 106, 107, 108, 109, 110, 111, 112, 113, 114, 115, 116, 117, 118, 119, 120, 121, 122, 123, 124, 125, 126, 127, 128, 129, 130, 131, 132, 133, 134, 135, 136, 137, 138, 139, 140, 141, 142, 143, 144, 145, 146, 147, 148, 149, 150, 151, 152, 153, 154, 155, 156, 157, 158, 159, 160, 161, 162, 163, 164, 165, 166, 167, 168, 169, 170, 171, 172, 173, 174, 175, 176, 177, 178, 179, 180, 181, 182, 183, 184, 185, 186, 187, 188, 189, 190, 191, 192, 193, 194, 195, 196, 197, 198, 199, 200, 201, 202, 203, 204, 205, 206, 207, 208, 209, 210, 211, 212, 213, 214, 215, 216, 217, 218, 219, 220, 221, 222, 223, 224, 225, 226, 227, 228, 229, 230, 231, 232, 233, 234, 235, 236, 237, 238, 239, 240, 241, 242, 243, 244, 245, 246, 247, 248, 249, 250, 251, 252, 253, 254, 255, 256, 257, 258, 259, 260, 261, 262, 263, 264, 265, 266, 267, 268, 269, 270, 271, 272, 273, 274, 275, 276, 277, 278, 279, 280, 281, 282, 283, 284, 285, 286, 287, 288, 289, 290, 291, 292, 293, 294, 295, 296, 297, 298, 299, 300, 301, 302, 303, 304, 305, 306, 307, 308, 309, 310, 311, 312, 313, 314, 315, 316, 317, 318, 319, 320, 321, 322, 323, 324, 325, 326, 327, 328, 329, 330],
      "AcquisitionTime": ["135226.910000", "135227.915000", "135228.917500", "135229.922500", "135230.927500", "135231.930000", "135232.935000", "135233.937500", "135234.942500", "135235.947500", "135236.950000", "135237.955000", "135238.957500", "135239.962500", "135240.967500", "135241.970000", "135242.975000", "135243.980000", "135244.982500", "135245.987500", "135246.990000", "135247.995000", "135249.000000", "135250.002500", "135251.007500", "135252.010000", "135253.015000", "135254.020000", "135255.022500", "135256.027500", "135257.030000", "135258.035000", "135259.040000", "135300.042500", "135301.047500", "135302.050000", "135303.055000", "135304.060000", "135305.062500", "135306.067500", "135307.070000", "135308.075000", "135309.080000", "135310.082500", "135311.087500", "135312.090000", "135313.095000", "135314.100000", "135315.102500", "135316.107500", "135317.112500", "135318.115000", "135319.120000", "135320.122500", "135321.127500", "135322.132500", "135323.135000", "135324.140000", "135325.142500", "135326.147500", "135327.152500", "135328.155000", "135329.160000", "135330.162500", "135331.167500", "135332.172500", "135333.175000", "135334.180000", "135335.182500", "135336.187500", "135337.192500", "135338.195000", "135339.200000", "135340.202500", "135341.207500", "135342.212500", "135343.215000", "135344.220000", "135345.225000", "135346.227500", "135347.232500", "135348.235000", "135349.240000", "135350.245000", "135351.247500", "135352.252500", "135353.255000", "135354.260000", "135355.265000", "135356.267500", "135357.272500", "135358.275000", "135359.280000", "135400.285000", "135401.287500", "135402.292500", "135403.295000", "135404.300000", "135405.305000", "135406.307500", "135407.312500", "135408.315000", "135409.320000", "135410.325000", "135411.327500", "135412.332500", "135413.335000", "135414.340000", "135415.345000", "135416.347500", "135417.352500", "135418.357500", "135419.360000", "135420.365000", "135421.367500", "135422.372500", "135423.377500", "135424.380000", "135425.385000", "135426.387500", "135427.392500", "135428.397500", "135429.400000", "135430.405000", "135431.407500", "135432.412500", "135433.417500", "135434.420000", "135435.425000", "135436.427500", "135437.432500", "135438.437500", "135439.440000", "135440.445000", "135441.447500", "135442.452500", "135443.457500", "135444.460000", "135445.465000", "135446.470000", "135447.472500", "135448.477500", "135449.480000", "135450.485000", "135451.490000", "135452.492500", "135453.497500", "135454.500000", "135455.505000", "135456.510000", "135457.512500", "135458.517500", "135459.520000", "135500.525000", "135501.530000", "135502.532500", "135503.537500", "135504.540000", "135505.545000", "135506.550000", "135507.552500", "135508.557500", "135509.560000", "135510.565000", "135511.570000", "135512.572500", "135513.577500", "135514.580000", "135515.585000", "135516.590000", "135517.592500", "135518.597500", "135519.602500", "135520.605000", "135521.610000", "135522.612500", "135523.617500", "135524.622500", "135525.625000", "135526.630000", "135527.632500", "135528.637500", "135529.642500", "135530.645000", "135531.650000", "135532.652500", "135533.657500", "135534.662500", "135535.665000", "135536.670000", "135537.672500", "135538.677500", "135539.682500", "135540.685000", "135541.690000", "135542.692500", "135543.697500", "135544.702500", "135545.705000", "135546.710000", "135547.712500", "135548.717500", "135549.722500", "135550.725000", "135551.730000", "135552.735000", "135553.737500", "135554.742500", "135555.745000", "135556.750000", "135557.755000", "135558.757500", "135559.762500", "135600.765000", "135601.770000", "135602.775000", "135603.777500", "135604.782500", "135605.785000", "135606.790000", "135607.795000", "135608.797500", "135609.802500", "135610.805000", "135611.810000", "135612.815000", "135613.817500", "135614.822500", "135615.825000", "135616.830000", "135617.835000", "135618.837500", "135619.842500", "135620.847500", "135621.850000", "135622.855000", "135623.857500", "135624.862500", "135625.867500", "135626.870000", "135627.875000", "135628.877500", "135629.882500", "135630.887500", "135631.890000", "135632.895000", "135633.897500", "135634.902500", "135635.907500", "135636.910000", "135637.915000", "135638.917500", "135639.922500", "135640.927500", "135641.930000", "135642.935000", "135643.937500", "135644.942500", "135645.947500", "135646.950000", "135647.955000", "135648.957500", "135649.962500", "135650.967500", "135651.970000", "135652.975000", "135653.980000", "135654.982500", "135655.987500", "135656.990000", "135657.995000", "135659.000000", "135700.002500", "135701.007500", "135702.010000", "135703.015000", "135704.020000", "135705.022500", "135706.027500", "135707.030000", "135708.035000", "135709.040000", "135710.042500", "135711.047500", "135712.050000", "135713.055000", "135714.060000", "135715.062500", "135716.067500", "135717.070000", "135718.075000", "135719.080000", "135720.082500", "135721.087500", "135722.090000", "135723.095000", "135724.100000", "135725.102500", "135726.107500", "135727.112500", "135728.115000", "135729.120000", "135730.122500", "135731.127500", "135732.132500", "135733.135000", "135734.140000", "135735.142500", "135736.147500", "135737.152500", "135738.155000", "135739.160000", "135740.162500", "135741.167500", "135742.172500", "135743.175000", "135744.180000", "135745.182500", "135746.187500", "135747.192500", "135748.195000", "135749.200000", "135750.202500", "135751.207500", "135752.212500", "135753.215000", "135754.220000", "135755.225000", "135756.227500", "135757.232500"],
      "ContentTime": ["135303.328000", "135303.328000", "135303.328000", "135303.328000", "135303.328000", "135303.343000", "135303.343000", "135303.343000", "135303.343000", "135303.359000", "135303.359000", "135303.359000", "135303.359000", "135303.359000", "135303.359000", "135303.375000", "135303.375000", "135303.375000", "135303.375000", "135303.375000", "135303.375000", "135303.390000", "135303.390000", "135303.390000", "135303.390000", "135303.390000", "135303.390000", "135303.406000", "135303.406000", "135303.406000", "135303.406000", "135303.406000", "135303.406000", "135303.406000", "135303.406000", "135323.281000", "135323.281000", "135323.296000", "135323.296000", "135323.296000", "135323.296000", "135323.296000", "135323.296000", "135323.312000", "135323.312000", "135323.312000", "135323.312000", "135323.312000", "135323.312000", "135323.312000", "135323.328000", "135323.328000", "135323.328000", "135323.328000", "135323.328000", "135343.281000", "135343.281000", "135343.296000", "135343.296000", "135343.296000", "135343.296000", "135343.296000", "135343.296000", "135343.312000", "135343.312000", "135343.312000", "135343.312000", "135343.312000", "135343.312000", "135343.328000", "135343.328000", "135343.328000", "135343.328000", "135343.328000", "135343.328000", "135403.281000", "135403.281000", "135403.296000", "135403.296000", "135403.296000", "135403.296000", "135403.296000", "135403.296000", "135403.296000", "135403.296000", "135403.312000", "135403.312000", "135403.312000", "135403.312000", "135403.312000", "135403.312000", "135403.312000", "135403.328000", "135403.328000", "135403.328000", "135423.281000", "135423.281000", "135423.281000", "135423.296000", "135423.296000", "135423.296000", "135423.296000", "135423.296000", "135423.312000", "135423.312000", "135423.312000", "135423.312000", "135423.312000", "135423.328000", "135423.328000", "135423.328000", "135423.328000", "135423.328000", "135423.328000", "135423.328000", "135443.281000", "135443.281000", "135443.281000", "135443.296000", "135443.296000", "135443.296000", "135443.296000", "135443.296000", "135443.296000", "135443.296000", "135443.312000", "135443.312000", "135443.312000", "135443.312000", "135443.312000", "135443.312000", "135443.312000", "135443.328000", "135443.328000", "135443.328000", "135503.281000", "135503.281000", "135503.296000", "135503.296000", "135503.296000", "135503.296000", "135503.296000", "135503.312000", "135503.312000", "135503.312000", "135503.312000", "135503.312000", "135503.328000", "135503.328000", "135503.328000", "135503.328000", "135503.328000", "135503.343000", "135503.343000", "135503.343000", "135523.281000", "135523.296000", "135523.296000", "135523.296000", "135523.296000", "135523.296000", "135523.296000", "135523.296000", "135523.296000", "135523.312000", "135523.312000", "135523.312000", "135523.312000", "135523.312000", "135523.312000", "135523.328000", "135523.328000", "135523.328000", "135523.343000", "135523.343000", "135543.281000", "135543.281000", "135543.296000", "135543.296000", "135543.296000", "135543.296000", "135543.296000", "135543.296000", "135543.296000", "135543.312000", "135543.312000", "135543.312000", "135543.312000", "135543.312000", "135543.328000", "135543.328000", "135543.328000", "135543.328000", "135543.328000", "135543.328000", "135603.281000", "135603.281000", "135603.296000", "135603.296000", "135603.296000", "135603.296000", "135603.296000", "135603.296000", "135603.312000", "135603.312000", "135603.312000", "135603.312000", "135603.312000", "135603.312000", "135603.312000", "135603.328000", "135603.328000", "135603.328000", "135603.328000", "135603.328000", "135623.281000", "135623.281000", "135623.281000", "135623.296000", "135623.296000", "135623.296000", "135623.296000", "135623.296000", "135623.296000", "135623.296000", "135623.312000", "135623.312000", "135623.312000", "135623.312000", "135623.312000", "135623.328000", "135623.328000", "135623.328000", "135623.328000", "135623.328000", "135643.281000", "135643.281000", "135643.281000", "135643.296000", "135643.296000", "135643.296000", "135643.296000", "135643.296000", "135643.296000", "135643.312000", "135643.312000", "135643.312000", "135643.312000", "135643.312000", "135643.312000", "135643.312000", "135643.328000", "135643.328000", "135643.328000", "135643.328000", "135703.281000", "135703.281000", "135703.296000", "135703.296000", "135703.296000", "135703.296000", "135703.296000", "135703.296000", "135703.296000", "135703.296000", "135703.312000", "135703.312000", "135703.312000", "135703.312000", "135703.312000", "135703.312000", "135703.312000", "135703.328000", "135703.328000", "135703.328000", "135723.281000", "135723.296000", "135723.296000", "135723.296000", "135723.296000", "135723.296000", "135723.296000", "135723.312000", "135723.312000", "135723.312000", "135723.312000", "135723.312000", "135723.312000", "135723.312000", "135723.312000", "135723.328000", "135723.328000", "135723.328000", "135723.328000", "135723.328000", "135743.281000", "135743.281000", "135743.296000", "135743.296000", "135743.296000", "135743.296000", "135743.296000", "135743.296000", "135743.296000", "135743.312000", "135743.312000", "135743.312000", "135743.312000", "135743.328000", "135743.328000", "135743.328000", "135743.328000", "135743.328000", "135743.328000", "135743.328000", "135802.593000", "135802.609000", "135802.609000", "135802.609000", "135802.609000", "135802.609000", "135802.625000", "135802.625000", "135802.625000", "135802.625000", "135802.625000", "135802.625000", "135802.625000", "135802.640000", "135802.640000"],
      "InstanceCreationTime": ["135303.328000", "135303.328000", "135303.328000", "135303.328000", "135303.328000", "135303.343000", "135303.343000", "135303.343000", "135303.343000", "135303.359000", "135303.359000", "135303.359000", "135303.359000", "135303.359000", "135303.359000", "135303.375000", "135303.375000", "135303.375000", "135303.375000", "135303.375000", "135303.375000", "135303.390000", "135303.390000", "135303.390000", "135303.390000", "135303.390000", "135303.390000", "135303.406000", "135303.406000", "135303.406000", "135303.406000", "135303.406000", "135303.406000", "135303.406000", "135303.406000", "135323.281000", "135323.281000", "135323.296000", "135323.296000", "135323.296000", "135323.296000", "135323.296000", "135323.296000", "135323.312000", "135323.312000", "135323.312000", "135323.312000", "135323.312000", "135323.312000", "135323.312000", "135323.328000", "135323.328000", "135323.328000", "135323.328000", "135323.328000", "135343.281000", "135343.281000", "135343.296000", "135343.296000", "135343.296000", "135343.296000", "135343.296000", "135343.296000", "135343.312000", "135343.312000", "135343.312000", "135343.312000", "135343.312000", "135343.312000", "135343.328000", "135343.328000", "135343.328000", "135343.328000", "135343.328000", "135343.328000", "135403.281000", "135403.281000", "135403.296000", "135403.296000", "135403.296000", "135403.296000", "135403.296000", "135403.296000", "135403.296000", "135403.296000", "135403.312000", "135403.312000", "135403.312000", "135403.312000", "135403.312000", "135403.312000", "135403.312000", "135403.328000", "135403.328000", "135403.328000", "135423.281000", "135423.281000", "135423.281000", "135423.296000", "135423.296000", "135423.296000", "135423.296000", "135423.296000", "135423.312000", "135423.312000", "135423.312000", "135423.312000", "135423.312000", "135423.328000", "135423.328000", "135423.328000", "135423.328000", "135423.328000", "135423.328000", "135423.328000", "135443.281000", "135443.281000", "135443.281000", "135443.296000", "135443.296000", "135443.296000", "135443.296000", "135443.296000", "135443.296000", "135443.296000", "135443.312000", "135443.312000", "135443.312000", "135443.312000", "135443.312000", "135443.312000", "135443.312000", "135443.328000", "135443.328000", "135443.328000", "135503.281000", "135503.281000", "135503.296000", "135503.296000", "135503.296000", "135503.296000", "135503.296000", "135503.312000", "135503.312000", "135503.312000", "135503.312000", "135503.312000", "135503.328000", "135503.328000", "135503.328000", "135503.328000", "135503.328000", "135503.343000", "135503.343000", "135503.343000", "135523.281000", "135523.296000", "135523.296000", "135523.296000", "135523.296000", "135523.296000", "135523.296000", "135523.296000", "135523.296000", "135523.312000", "135523.312000", "135523.312000", "135523.312000", "135523.312000", "135523.312000", "135523.328000", "135523.328000", "135523.328000", "135523.343000", "135523.343000", "135543.281000", "135543.281000", "135543.296000", "135543.296000", "135543.296000", "135543.296000", "135543.296000", "135543.296000", "135543.296000", "135543.312000", "135543.312000", "135543.312000", "135543.312000", "135543.312000", "135543.328000", "135543.328000", "135543.328000", "135543.328000", "135543.328000", "135543.328000", "135603.281000", "135603.281000", "135603.296000", "135603.296000", "135603.296000", "135603.296000", "135603.296000", "135603.296000", "135603.312000", "135603.312000", "135603.312000", "135603.312000", "135603.312000", "135603.312000", "135603.312000", "135603.328000", "135603.328000", "135603.328000", "135603.328000", "135603.328000", "135623.281000", "135623.281000", "135623.281000", "135623.296000", "135623.296000", "135623.296000", "135623.296000", "135623.296000", "135623.296000", "135623.296000", "135623.312000", "135623.312000", "135623.312000", "135623.312000", "135623.312000", "135623.328000", "135623.328000", "135623.328000", "135623.328000", "135623.328000", "135643.281000", "135643.281000", "135643.281000", "135643.296000", "135643.296000", "135643.296000", "135643.296000", "135643.296000", "135643.296000", "135643.312000", "135643.312000", "135643.312000", "135643.312000", "135643.312000", "135643.312000", "135643.312000", "135643.328000", "135643.328000", "135643.328000", "135643.328000", "135703.281000", "135703.281000", "135703.296000", "135703.296000", "135703.296000", "135703.296000", "135703.296000", "135703.296000", "135703.296000", "135703.296000", "135703.312000", "135703.312000", "135703.312000", "135703.312000", "135703.312000", "135703.312000", "135703.312000", "135703.328000", "135703.328000", "135703.328000", "135723.281000", "135723.296000", "135723.296000", "135723.296000", "135723.296000", "135723.296000", "135723.296000", "135723.312000", "135723.312000", "135723.312000", "135723.312000", "135723.312000", "135723.312000", "135723.312000", "135723.312000", "135723.328000", "135723.328000", "135723.328000", "135723.328000", "135723.328000", "135743.281000", "135743.281000", "135743.296000", "135743.296000", "135743.296000", "135743.296000", "135743.296000", "135743.296000", "135743.296000", "135743.312000", "135743.312000", "135743.312000", "135743.312000", "135743.328000", "135743.328000", "135743.328000", "135743.328000", "135743.328000", "135743.328000", "135743.328000", "135802.593000", "135802.609000", "135802.609000", "135802.609000", "135802.609000", "135802.609000", "135802.625000", "135802.625000", "135802.625000", "135802.625000", "135802.625000", "135802.625000", "135802.625000", "135802.640000", "135802.640000"],
      "InstanceNumber": [1, 2, 3, 4, 5, 6, 7, 8, 9, 10, 11, 12, 13, 14, 15, 16, 17, 18, 19, 20, 21, 22, 23, 24, 25, 26, 27, 28, 29, 30, 31, 32, 33, 34, 35, 36, 37, 38, 39, 40, 41, 42, 43, 44, 45, 46, 47, 48, 49, 50, 51, 52, 53, 54, 55, 56, 57, 58, 59, 60, 61, 62, 63, 64, 65, 66, 67, 68, 69, 70, 71, 72, 73, 74, 75, 76, 77, 78, 79, 80, 81, 82, 83, 84, 85, 86, 87, 88, 89, 90, 91, 92, 93, 94, 95, 96, 97, 98, 99, 100, 101, 102, 103, 104, 105, 106, 107, 108, 109, 110, 111, 112, 113, 114, 115, 116, 117, 118, 119, 120, 121, 122, 123, 124, 125, 126, 127, 128, 129, 130, 131, 132, 133, 134, 135, 136, 137, 138, 139, 140, 141, 142, 143, 144, 145, 146, 147, 148, 149, 150, 151, 152, 153, 154, 155, 156, 157, 158, 159, 160, 161, 162, 163, 164, 165, 166, 167, 168, 169, 170, 171, 172, 173, 174, 175, 176, 177, 178, 179, 180, 181, 182, 183, 184, 185, 186, 187, 188, 189, 190, 191, 192, 193, 194, 195, 196, 197, 198, 199, 200, 201, 202, 203, 204, 205, 206, 207, 208, 209, 210, 211, 212, 213, 214, 215, 216, 217, 218, 219, 220, 221, 222, 223, 224, 225, 226, 227, 228, 229, 230, 231, 232, 233, 234, 235, 236, 237, 238, 239, 240, 241, 242, 243, 244, 245, 246, 247, 248, 249, 250, 251, 252, 253, 254, 255, 256, 257, 258, 259, 260, 261, 262, 263, 264, 265, 266, 267, 268, 269, 270, 271, 272, 273, 274, 275, 276, 277, 278, 279, 280, 281, 282, 283, 284, 285, 286, 287, 288, 289, 290, 291, 292, 293, 294, 295, 296, 297, 298, 299, 300, 301, 302, 303, 304, 305, 306, 307, 308, 309, 310, 311, 312, 313, 314, 315, 316, 317, 318, 319, 320, 321, 322, 323, 324, 325, 326, 327, 328, 329, 330],
      "LargestImagePixelValue": [2539, 2539, 2544, 2487, 2557, 2589, 2552, 2563, 2557, 2578, 2623, 2617, 2637, 2620, 2654, 2638, 2685, 2689, 2655, 2697, 2742, 2708, 2694, 2716, 2682, 2694, 2640, 2633, 2648, 2635, 2630, 2624, 2678, 2612, 2655, 2626, 2678, 2643, 2654, 2627, 2642, 2660, 2695, 2638, 2641, 2657, 2631, 2667, 2657, 2636, 2640, 2603, 2592, 2599, 2660, 2638, 2672, 2659, 2636, 2656, 2641, 2618, 2648, 2668, 2634, 2622, 2656, 2668, 2654, 2653, 2688, 2649, 2657, 2660, 2662, 2675, 2635, 2654, 2655, 2620, 2594, 2643, 2631, 2612, 2611, 2633, 2593, 2621, 2627, 2634, 2603, 2651, 2683, 2623, 2621, 2668, 2644, 2631, 2628, 2622, 2588, 2600, 2624, 2599, 2654, 2659, 2618, 2603, 2594, 2632, 2574, 2616, 2634, 2611, 2649, 2601, 2587, 2566, 2639, 2630, 2574, 2633, 2626, 2587, 2548, 2577, 2571, 2593, 2585, 2620, 2573, 2615, 2602, 2585, 2571, 2597, 2634, 2565, 2597, 2596, 2613, 2556, 2580, 2597, 2558, 2610, 2554, 2563, 2566, 2558, 2603, 2557, 2573, 2524, 2517, 2559, 2564, 2523, 2581, 2562, 2549, 2588, 2554, 2571, 2529, 2590, 2544, 2554, 2578, 2626, 2570, 2597, 2593, 2564, 2595, 2592, 2559, 2611, 2524, 2526, 2574, 2564, 2559, 2611, 2641, 2570, 2579, 2570, 2589, 2567, 2533, 2550, 2536, 2528, 2561, 2533, 2554, 2546, 2580, 2566, 2586, 2589, 2573, 2592, 2581, 2592, 2554, 2638, 2545, 2654, 2637, 2584, 2625, 2541, 2544, 2531, 2559, 2594, 2573, 2608, 2572, 2533, 2514, 2552, 2573, 2555, 2562, 2583, 2592, 2496, 2508, 2575, 2567, 2523, 2603, 2547, 2582, 2573, 2550, 2541, 2552, 2527, 2528, 2527, 2525, 2535, 2528, 2579, 2530, 2550, 2596, 2549, 2571, 2548, 2527, 2544, 2494, 2505, 2547, 2553, 2511, 2516, 2554, 2551, 2537, 2534, 2548, 2528, 2531, 2511, 2529, 2510, 2532, 2545, 2569, 2609, 2586, 2594, 2618, 2578, 2608, 2614, 2615, 2590, 2598, 2587, 2611, 2577, 2608, 2615, 2625, 2629, 2591, 2604, 2553, 2582, 2561, 2583, 2565, 2581, 2589, 2606, 2606, 2618, 2634, 2608, 2600, 2612, 2591, 2626, 2614, 2575, 2571, 2533, 2569, 2602, 2589, 2586, 2587, 2558, 2562, 2591, 2566, 2564, 2584, 2580, 2578, 2597, 2608, 2611],
      "WindowCenter": [437.0, 434.0, 434.0, 434.0, 433.0, 432.0, 432.0, 432.0, 431.0, 430.0, 430.0, 430.0, 429.0, 427.0, 426.0, 423.0, 423.0, 423.0, 423.0, 425.0, 426.0, 426.0, 426.0, 428.0, 429.0, 430.0, 432.0, 432.0, 429.0, 429.0, 429.0, 430.0, 431.0, 432.0, 433.0, 432.0, 432.0, 431.0, 432.0, 432.0, 432.0, 432.0, 432.0, 432.0, 432.0, 434.0, 435.0, 436.0, 435.0, 432.0, 432.0, 432.0, 432.0, 430.0, 430.0, 428.0, 427.0, 427.0, 428.0, 428.0, 428.0, 427.0, 428.0, 429.0, 428.0, 428.0, 428.0, 429.0, 430.0, 431.0, 432.0, 431.0, 431.0, 430.0, 430.0, 431.0, 431.0, 432.0, 432.0, 432.0, 434.0, 435.0, 435.0, 435.0, 434.0, 434.0, 433.0, 433.0, 433.0, 432.0, 432.0, 432.0, 433.0, 433.0, 432.0, 432.0, 432.0, 433.0, 433.0, 433.0, 433.0, 433.0, 433.0, 433.0, 433.0, 432.0, 432.0, 432.0, 433.0, 433.0, 434.0, 433.0, 433.0, 433.0, 433.0, 432.0, 432.0, 433.0, 434.0, 433.0, 433.0, 433.0, 432.0, 432.0, 431.0, 432.0, 432.0, 432.0, 430.0, 428.0, 427.0, 427.0, 428.0, 429.0, 429.0, 431.0, 431.0, 431.0, 431.0, 430.0, 431.0, 431.0, 431.0, 431.0, 431.0, 432.0, 433.0, 432.0, 433.0, 434.0, 434.0, 433.0, 434.0, 434.0, 434.0, 435.0, 435.0, 435.0, 436.0, 435.0, 434.0, 434.0, 434.0, 434.0, 433.0, 434.0, 434.0, 435.0, 434.0, 434.0, 433.0, 434.0, 434.0, 434.0, 434.0, 434.0, 434.0, 434.0, 433.0, 433.0, 433.0, 433.0, 434.0, 435.0, 436.0, 436.0, 435.0, 436.0, 436.0, 435.0, 435.0, 435.0, 434.0, 434.0, 435.0, 435.0, 435.0, 435.0, 435.0, 434.0, 434.0, 435.0, 436.0, 436.0, 436.0, 436.0, 436.0, 436.0, 436.0, 436.0, 436.0, 436.0, 437.0, 437.0, 437.0, 437.0, 437.0, 437.0, 437.0, 437.0, 437.0, 438.0, 437.0, 437.0, 437.0, 436.0, 435.0, 435.0, 436.0, 435.0, 435.0, 435.0, 435.0, 435.0, 435.0, 434.0, 433.0, 433.0, 433.0, 433.0, 433.0, 433.0, 432.0, 432.0, 433.0, 433.0, 433.0, 435.0, 435.0, 436.0, 437.0, 438.0, 437.0, 437.0, 437.0, 437.0, 437.0, 437.0, 438.0, 437.0, 436.0, 435.0, 435.0, 436.0, 434.0, 434.0, 436.0, 436.0, 436.0, 435.0, 435.0, 434.0, 435.0, 435.0, 434.0, 434.0, 433.0, 432.0, 434.0, 434.0, 435.0, 436.0, 436.0, 436.0, 435.0, 435.0, 434.0, 433.0, 433.0, 434.0, 435.0, 436.0, 436.0, 436.0, 435.0, 436.0, 437.0, 437.0, 437.0, 436.0, 437.0, 436.0, 437.0, 438.0, 439.0, 438.0, 437.0, 437.0, 436.0, 436.0, 436.0, 436.0, 436.0, 435.0, 434.0, 435.0, 436.0, 436.0, 436.0, 436.0, 436.0, 436.0, 437.0, 437.0, 437.0, 437.0, 436.0, 436.0, 436.0, 436.0],
