{
  "AcquisitionMatrixPE": 104,
  "AcquisitionNumber": 1,
  "AcquisitionTime": "13:32:31.292500",
  "BandwidthPerPixelPhaseEncode": 43.054,
  "BaseResolution": 104,
  "CoilString": "C:E1_2",
  "ConversionSoftware": "dcm2niix",
  "ConversionSoftwareVersion": "v1.0.20191031",
  "DerivedVendorReportedEchoSpacing": 0.000669999,
  "DeviceSerialNumber": "18932",
  "DwellTime": 2.8e-06,
  "EchoTime": 0.02,
  "EffectiveEchoSpacing": 0.000223333,
  "FlipAngle": 30,
  "ImageComments": "Unaliased_MB2_PE2",
  "ImageOrientationPatientDICOM": [1, 0, 0, 0, 0.988756, -0.149535],
  "ImageType": [
    "ORIGINAL",
    "PRIMARY",
    "M",
    "MB",
    "ND",
    "MOSAIC"
],
  "ImagingFrequency": 297.229,
  "InPlanePhaseEncodingDirectionDICOM": "COL",
  "InstitutionAddress": "Richmond_Street_North_1151_London_409EF2_Ontario_CA_N6A_5B7",
  "InstitutionName": "Robarts_Reserch_Institute",
  "InstitutionalDepartmentName": "Department",
  "MRAcquisitionType": "2D",
  "MagneticFieldStrength": 6.98,
  "Manufacturer": "Siemens",
  "ManufacturersModelName": "Investigational_Device_7T",
  "Modality": "MR",
  "MultibandAccelerationFactor": 2,
  "ParallelReductionFactorInPlane": 3,
  "PartialFourier": 0.875,
  "PatientPosition": "HFS",
  "PercentPhaseFOV": 100,
  "PhaseEncodingDirection": "j-",
  "PhaseEncodingSteps": 91,
  "PhaseResolution": 1,
  "PixelBandwidth": 1717,
  "ProcedureStepDescription": "Diedrichsen_SeqRep4",
  "ProtocolName": "mbep2d_bold_mb2_p3_AP_2iso",
  "PulseSequenceDetails": "%CustomerSeq%_cmrr_mbep2d_bold",
  "ReceiveCoilName": "CFMM_8Tx32Rx",
  "ReconMatrixPE": 104,
  "RefLinesPE": 36,
  "RepetitionTime": 1,
  "ScanOptions": "PFP_FS",
  "ScanningSequence": "EP",
  "SequenceName": "epfid2d1_104",
  "SequenceVariant": "SK_SS",
  "SeriesDescription": "mbep2d_bold_mb2_p3_AP_2iso",
  "SeriesNumber": 27,
  "ShimSetting": [-16, 1963, 280, 451, 67, -195, -266, -123],
  "SliceThickness": 2,
  "SliceTiming": [0, 0.2275, 0.455, 0.6825, 0.9125, 0.135, 0.365, 0.5925, 0.82, 0.045, 0.2725, 0.5, 0.73, 0.9575, 0.1825, 0.41, 0.6375, 0.865, 0.09, 0.3175, 0.5475, 0.775, 0, 0.2275, 0.455, 0.6825, 0.9125, 0.135, 0.365, 0.5925, 0.82, 0.045, 0.2725, 0.5, 0.73, 0.9575, 0.1825, 0.41, 0.6375, 0.865, 0.09, 0.3175, 0.5475, 0.775],
  "SoftwareVersions": "syngo_MR_B17",
  "SpacingBetweenSlices": 2,
  "StationName": "MASTER",
  "TaskName": "dsp",
  "TotalReadoutTime": 0.0230033,
  "TxRefAmp": 120,
  "dcmmeta_affine": [
    [-2.0, 0.0, 0.0, 107.6319580078125],
    [0.0, 1.9775127172470093, -0.29907068610191345, -106.04757690429688],
    [0.0, 0.29907068610191345, 1.9775127172470093, -46.19629669189453],
    [0.0, 0.0, 0.0, 1.0]
],
  "dcmmeta_reorient_transform": [
    [0.0, -1.0, 0.0, 103.0],
    [1.0, 0.0, 0.0, 0.0],
    [0.0, 0.0, 1.0, 0.0],
    [0.0, 0.0, 0.0, 1.0]
],
  "dcmmeta_shape": [104, 104, 44, 330],
  "dcmmeta_slice_dim": 2,
  "dcmmeta_version": 0.6,
  "global": {
    "const": {
      "AcquisitionMatrix": [104, 0, 0, 104],
      "AngioFlag": "N",
      "BitsAllocated": 16,
      "BitsStored": 12,
      "Columns": 728,
      "EchoNumbers": 1,
      "EchoTime": 20.0,
      "EchoTrainLength": 1,
      "FlipAngle": 30.0,
      "HighBit": 11,
      "ImageOrientationPatient": [1.0, 0.0, 0.0, 0.0, 0.98875638160626, -0.1495353397458],
      "ImagePositionPatient": [-731.63196134567, -714.62022165698, 77.918034173961],
      "ImageType": [
        "ORIGINAL",
        "PRIMARY",
        "M",
        "MB",
        "ND",
        "MOSAIC"
],
      "ImagedNucleus": "1H",
      "ImagingFrequency": 297.229231,
      "InPlanePhaseEncodingDirection": "COL",
      "MRAcquisitionType": "2D",
      "MagneticFieldStrength": 6.98,
      "Manufacturer": "SIEMENS",
      "ManufacturerModelName": "Investigational_Device_7T",
      "Modality": "MR",
      "NumberOfAverages": 1.0,
      "NumberOfPhaseEncodingSteps": 91,
      "PercentPhaseFieldOfView": 100.0,
      "PercentSampling": 100.0,
      "PerformedProcedureStepStartTime": "123916.500000",
      "PhotometricInterpretation": "MONOCHROME2",
      "PixelBandwidth": 1717.0,
      "PixelRepresentation": 0,
      "PixelSpacing": [2.0, 2.0],
      "ProtocolName": "mbep2d_bold_mb2_p3_AP 2iso",
      "RepetitionTime": 1000.0,
      "Rows": 728,
      "SAR": 0.0,
      "SamplesPerPixel": 1,
      "ScanOptions": [
        "PFP",
        "FS"
],
      "ScanningSequence": "EP",
      "SequenceName": "epfid2d1_104",
      "SequenceVariant": [
        "SK",
        "SS"
],
      "SeriesDescription": "mbep2d_bold_mb2_p3_AP 2iso",
      "SeriesNumber": 27,
      "SeriesTime": "133303.312000",
      "SliceLocation": -29.819024103006,
      "SliceThickness": 2.0,
      "SmallestImagePixelValue": 0,
      "SoftwareVersions": "syngo MR B17",
      "SpacingBetweenSlices": 1.9999999990406,
      "SpecificCharacterSet": "ISO_IR 100",
      "StudyID": "1",
      "StudyTime": "123916.437000",
      "TransmitCoilName": "CFMM_8Tx32Rx",
      "VariableFlipAngleFlag": "N",
      "WindowCenterWidthExplanation": "Algo1",
      "dBdt": 0.0},
    "slices": {}
  },
  "time": {
    "samples": {
      "AcquisitionNumber": [1, 2, 3, 4, 5, 6, 7, 8, 9, 10, 11, 12, 13, 14, 15, 16, 17, 18, 19, 20, 21, 22, 23, 24, 25, 26, 27, 28, 29, 30, 31, 32, 33, 34, 35, 36, 37, 38, 39, 40, 41, 42, 43, 44, 45, 46, 47, 48, 49, 50, 51, 52, 53, 54, 55, 56, 57, 58, 59, 60, 61, 62, 63, 64, 65, 66, 67, 68, 69, 70, 71, 72, 73, 74, 75, 76, 77, 78, 79, 80, 81, 82, 83, 84, 85, 86, 87, 88, 89, 90, 91, 92, 93, 94, 95, 96, 97, 98, 99, 100, 101, 102, 103, 104, 105, 106, 107, 108, 109, 110, 111, 112, 113, 114, 115, 116, 117, 118, 119, 120, 121, 122, 123, 124, 125, 126, 127, 128, 129, 130, 131, 132, 133, 134, 135, 136, 137, 138, 139, 140, 141, 142, 143, 144, 145, 146, 147, 148, 149, 150, 151, 152, 153, 154, 155, 156, 157, 158, 159, 160, 161, 162, 163, 164, 165, 166, 167, 168, 169, 170, 171, 172, 173, 174, 175, 176, 177, 178, 179, 180, 181, 182, 183, 184, 185, 186, 187, 188, 189, 190, 191, 192, 193, 194, 195, 196, 197, 198, 199, 200, 201, 202, 203, 204, 205, 206, 207, 208, 209, 210, 211, 212, 213, 214, 215, 216, 217, 218, 219, 220, 221, 222, 223, 224, 225, 226, 227, 228, 229, 230, 231, 232, 233, 234, 235, 236, 237, 238, 239, 240, 241, 242, 243, 244, 245, 246, 247, 248, 249, 250, 251, 252, 253, 254, 255, 256, 257, 258, 259, 260, 261, 262, 263, 264, 265, 266, 267, 268, 269, 270, 271, 272, 273, 274, 275, 276, 277, 278, 279, 280, 281, 282, 283, 284, 285, 286, 287, 288, 289, 290, 291, 292, 293, 294, 295, 296, 297, 298, 299, 300, 301, 302, 303, 304, 305, 306, 307, 308, 309, 310, 311, 312, 313, 314, 315, 316, 317, 318, 319, 320, 321, 322, 323, 324, 325, 326, 327, 328, 329, 330],
      "AcquisitionTime": ["133231.292500", "133232.295000", "133233.300000", "133234.302500", "133235.307500", "133236.312500", "133237.315000", "133238.320000", "133239.325000", "133240.327500", "133241.332500", "133242.335000", "133243.340000", "133244.345000", "133245.347500", "133246.352500", "133247.355000", "133248.360000", "133249.365000", "133250.367500", "133251.372500", "133252.375000", "133253.380000", "133254.385000", "133255.387500", "133256.392500", "133257.395000", "133258.400000", "133259.405000", "133300.407500", "133301.412500", "133302.415000", "133303.420000", "133304.425000", "133305.427500", "133306.432500", "133307.437500", "133308.440000", "133309.445000", "133310.447500", "133311.452500", "133312.457500", "133313.460000", "133314.465000", "133315.467500", "133316.472500", "133317.477500", "133318.480000", "133319.485000", "133320.487500", "133321.492500", "133322.497500", "133323.500000", "133324.505000", "133325.507500", "133326.512500", "133327.517500", "133328.520000", "133329.525000", "133330.527500", "133331.532500", "133332.537500", "133333.540000", "133334.545000", "133335.547500", "133336.552500", "133337.557500", "133338.560000", "133339.565000", "133340.570000", "133341.572500", "133342.577500", "133343.580000", "133344.585000", "133345.590000", "133346.592500", "133347.597500", "133348.600000", "133349.605000", "133350.610000", "133351.612500", "133352.617500", "133353.620000", "133354.625000", "133355.630000", "133356.632500", "133357.637500", "133358.640000", "133359.645000", "133400.650000", "133401.652500", "133402.657500", "133403.660000", "133404.665000", "133405.670000", "133406.672500", "133407.677500", "133408.682500", "133409.685000", "133410.690000", "133411.692500", "133412.697500", "133413.702500", "133414.705000", "133415.710000", "133416.712500", "133417.717500", "133418.722500", "133419.725000", "133420.730000", "133421.732500", "133422.737500", "133423.742500", "133424.745000", "133425.750000", "133426.752500", "133427.757500", "133428.762500", "133429.765000", "133430.770000", "133431.772500", "133432.777500", "133433.782500", "133434.785000", "133435.790000", "133436.792500", "133437.797500", "133438.802500", "133439.805000", "133440.810000", "133441.815000", "133442.817500", "133443.822500", "133444.825000", "133445.830000", "133446.835000", "133447.837500", "133448.842500", "133449.845000", "133450.850000", "133451.855000", "133452.857500", "133453.862500", "133454.865000", "133455.870000", "133456.875000", "133457.877500", "133458.882500", "133459.885000", "133500.890000", "133501.895000", "133502.897500", "133503.902500", "133504.905000", "133505.910000", "133506.915000", "133507.917500", "133508.922500", "133509.925000", "133510.930000", "133511.935000", "133512.937500", "133513.942500", "133514.947500", "133515.950000", "133516.955000", "133517.957500", "133518.962500", "133519.967500", "133520.970000", "133521.975000", "133522.977500", "133523.982500", "133524.987500", "133525.990000", "133526.995000", "133527.997500", "133529.002500", "133530.007500", "133531.010000", "133532.015000", "133533.017500", "133534.022500", "133535.027500", "133536.030000", "133537.035000", "133538.037500", "133539.042500", "133540.047500", "133541.050000", "133542.055000", "133543.060000", "133544.062500", "133545.067500", "133546.070000", "133547.075000", "133548.080000", "133549.082500", "133550.087500", "133551.090000", "133552.095000", "133553.100000", "133554.102500", "133555.107500", "133556.110000", "133557.115000", "133558.120000", "133559.122500", "133600.127500", "133601.130000", "133602.135000", "133603.140000", "133604.142500", "133605.147500", "133606.150000", "133607.155000", "133608.160000", "133609.162500", "133610.167500", "133611.170000", "133612.175000", "133613.180000", "133614.182500", "133615.187500", "133616.192500", "133617.195000", "133618.200000", "133619.202500", "133620.207500", "133621.212500", "133622.215000", "133623.220000", "133624.222500", "133625.227500", "133626.232500", "133627.235000", "133628.240000", "133629.242500", "133630.247500", "133631.252500", "133632.255000", "133633.260000", "133634.262500", "133635.267500", "133636.272500", "133637.275000", "133638.280000", "133639.282500", "133640.287500", "133641.292500", "133642.295000", "133643.300000", "133644.302500", "133645.307500", "133646.312500", "133647.315000", "133648.320000", "133649.325000", "133650.327500", "133651.332500", "133652.335000", "133653.340000", "133654.345000", "133655.347500", "133656.352500", "133657.355000", "133658.360000", "133659.365000", "133700.367500", "133701.372500", "133702.375000", "133703.380000", "133704.385000", "133705.387500", "133706.392500", "133707.395000", "133708.400000", "133709.405000", "133710.407500", "133711.412500", "133712.415000", "133713.420000", "133714.425000", "133715.427500", "133716.432500", "133717.437500", "133718.440000", "133719.445000", "133720.447500", "133721.452500", "133722.457500", "133723.460000", "133724.465000", "133725.467500", "133726.472500", "133727.477500", "133728.480000", "133729.485000", "133730.487500", "133731.492500", "133732.497500", "133733.500000", "133734.505000", "133735.507500", "133736.512500", "133737.517500", "133738.520000", "133739.525000", "133740.527500", "133741.532500", "133742.537500", "133743.540000", "133744.545000", "133745.547500", "133746.552500", "133747.557500", "133748.560000", "133749.565000", "133750.570000", "133751.572500", "133752.577500", "133753.580000", "133754.585000", "133755.590000", "133756.592500", "133757.597500", "133758.600000", "133759.605000", "133800.610000", "133801.612500"],
      "ContentTime": ["133303.328000", "133303.328000", "133303.328000", "133303.328000", "133303.328000", "133303.343000", "133303.343000", "133303.343000", "133303.343000", "133303.343000", "133303.343000", "133303.343000", "133303.359000", "133303.359000", "133303.359000", "133303.359000", "133303.359000", "133303.359000", "133303.359000", "133303.375000", "133303.375000", "133303.375000", "133303.375000", "133303.375000", "133303.375000", "133303.375000", "133303.375000", "133303.390000", "133303.390000", "133303.390000", "133303.390000", "133323.281000", "133323.281000", "133323.281000", "133323.296000", "133323.296000", "133323.296000", "133323.296000", "133323.296000", "133323.296000", "133323.296000", "133323.312000", "133323.312000", "133323.312000", "133323.312000", "133323.312000", "133323.312000", "133323.312000", "133323.328000", "133323.328000", "133323.328000", "133343.281000", "133343.281000", "133343.296000", "133343.296000", "133343.296000", "133343.296000", "133343.296000", "133343.296000", "133343.296000", "133343.296000", "133343.312000", "133343.312000", "133343.312000", "133343.312000", "133343.312000", "133343.312000", "133343.328000", "133343.328000", "133343.328000", "133343.328000", "133403.281000", "133403.281000", "133403.296000", "133403.296000", "133403.296000", "133403.296000", "133403.296000", "133403.296000", "133403.312000", "133403.312000", "133403.312000", "133403.312000", "133403.312000", "133403.312000", "133403.312000", "133403.328000", "133403.328000", "133403.328000", "133403.328000", "133403.328000", "133423.281000", "133423.281000", "133423.296000", "133423.296000", "133423.296000", "133423.296000", "133423.296000", "133423.296000", "133423.296000", "133423.296000", "133423.312000", "133423.312000", "133423.312000", "133423.312000", "133423.312000", "133423.312000", "133423.312000", "133423.312000", "133423.328000", "133423.328000", "133443.281000", "133443.281000", "133443.281000", "133443.296000", "133443.296000", "133443.296000", "133443.296000", "133443.296000", "133443.296000", "133443.312000", "133443.312000", "133443.312000", "133443.312000", "133443.312000", "133443.312000", "133443.312000", "133443.328000", "133443.328000", "133443.328000", "133443.328000", "133503.281000", "133503.281000", "133503.296000", "133503.296000", "133503.296000", "133503.296000", "133503.296000", "133503.296000", "133503.296000", "133503.296000", "133503.312000", "133503.312000", "133503.312000", "133503.312000", "133503.312000", "133503.312000", "133503.312000", "133503.312000", "133503.328000", "133503.328000", "133523.281000", "133523.281000", "133523.296000", "133523.296000", "133523.296000", "133523.296000", "133523.296000", "133523.296000", "133523.296000", "133523.296000", "133523.312000", "133523.312000", "133523.312000", "133523.312000", "133523.312000", "133523.312000", "133523.312000", "133523.312000", "133523.328000", "133523.328000", "133543.281000", "133543.281000", "133543.296000", "133543.296000", "133543.296000", "133543.296000", "133543.296000", "133543.296000", "133543.312000", "133543.312000", "133543.312000", "133543.312000", "133543.312000", "133543.312000", "133543.312000", "133543.328000", "133543.328000", "133543.328000", "133543.328000", "133543.328000", "133603.281000", "133603.281000", "133603.296000", "133603.296000", "133603.296000", "133603.296000", "133603.296000", "133603.296000", "133603.296000", "133603.296000", "133603.312000", "133603.312000", "133603.312000", "133603.312000", "133603.312000", "133603.312000", "133603.312000", "133603.328000", "133603.328000", "133603.328000", "133623.281000", "133623.281000", "133623.296000", "133623.296000", "133623.296000", "133623.296000", "133623.296000", "133623.296000", "133623.296000", "133623.296000", "133623.312000", "133623.312000", "133623.312000", "133623.312000", "133623.312000", "133623.312000", "133623.312000", "133623.328000", "133623.328000", "133623.328000", "133643.281000", "133643.281000", "133643.296000", "133643.296000", "133643.296000", "133643.296000", "133643.296000", "133643.296000", "133643.296000", "133643.296000", "133643.312000", "133643.312000", "133643.312000", "133643.312000", "133643.312000", "133643.312000", "133643.312000", "133643.312000", "133643.328000", "133643.328000", "133703.281000", "133703.281000", "133703.296000", "133703.296000", "133703.296000", "133703.296000", "133703.312000", "133703.312000", "133703.312000", "133703.312000", "133703.312000", "133703.312000", "133703.312000", "133703.312000", "133703.328000", "133703.328000", "133703.328000", "133703.328000", "133703.328000", "133703.328000", "133723.281000", "133723.281000", "133723.296000", "133723.296000", "133723.296000", "133723.296000", "133723.296000", "133723.296000", "133723.312000", "133723.312000", "133723.312000", "133723.312000", "133723.312000", "133723.312000", "133723.312000", "133723.328000", "133723.328000", "133723.328000", "133723.328000", "133723.328000", "133743.281000", "133743.281000", "133743.296000", "133743.296000", "133743.296000", "133743.296000", "133743.296000", "133743.296000", "133743.296000", "133743.296000", "133743.312000", "133743.312000", "133743.312000", "133743.312000", "133743.312000", "133743.312000", "133743.312000", "133743.328000", "133743.328000", "133743.328000", "133807.000000", "133807.000000", "133807.000000", "133807.000000", "133807.000000", "133807.015000", "133807.015000", "133807.015000", "133807.015000", "133807.031000", "133807.031000", "133807.031000", "133807.031000", "133807.031000", "133807.031000", "133807.031000", "133807.046000", "133807.046000", "133807.046000"],
      "InstanceCreationTime": ["133303.328000", "133303.328000", "133303.328000", "133303.328000", "133303.328000", "133303.343000", "133303.343000", "133303.343000", "133303.343000", "133303.343000", "133303.343000", "133303.343000", "133303.359000", "133303.359000", "133303.359000", "133303.359000", "133303.359000", "133303.359000", "133303.359000", "133303.375000", "133303.375000", "133303.375000", "133303.375000", "133303.375000", "133303.375000", "133303.375000", "133303.375000", "133303.390000", "133303.390000", "133303.390000", "133303.390000", "133323.281000", "133323.281000", "133323.281000", "133323.296000", "133323.296000", "133323.296000", "133323.296000", "133323.296000", "133323.296000", "133323.296000", "133323.312000", "133323.312000", "133323.312000", "133323.312000", "133323.312000", "133323.312000", "133323.312000", "133323.328000", "133323.328000", "133323.328000", "133343.281000", "133343.281000", "133343.296000", "133343.296000", "133343.296000", "133343.296000", "133343.296000", "133343.296000", "133343.296000", "133343.296000", "133343.312000", "133343.312000", "133343.312000", "133343.312000", "133343.312000", "133343.312000", "133343.328000", "133343.328000", "133343.328000", "133343.328000", "133403.281000", "133403.281000", "133403.296000", "133403.296000", "133403.296000", "133403.296000", "133403.296000", "133403.296000", "133403.312000", "133403.312000", "133403.312000", "133403.312000", "133403.312000", "133403.312000", "133403.312000", "133403.328000", "133403.328000", "133403.328000", "133403.328000", "133403.328000", "133423.281000", "133423.281000", "133423.296000", "133423.296000", "133423.296000", "133423.296000", "133423.296000", "133423.296000", "133423.296000", "133423.296000", "133423.312000", "133423.312000", "133423.312000", "133423.312000", "133423.312000", "133423.312000", "133423.312000", "133423.312000", "133423.328000", "133423.328000", "133443.281000", "133443.281000", "133443.281000", "133443.296000", "133443.296000", "133443.296000", "133443.296000", "133443.296000", "133443.296000", "133443.312000", "133443.312000", "133443.312000", "133443.312000", "133443.312000", "133443.312000", "133443.312000", "133443.328000", "133443.328000", "133443.328000", "133443.328000", "133503.281000", "133503.281000", "133503.296000", "133503.296000", "133503.296000", "133503.296000", "133503.296000", "133503.296000", "133503.296000", "133503.296000", "133503.312000", "133503.312000", "133503.312000", "133503.312000", "133503.312000", "133503.312000", "133503.312000", "133503.312000", "133503.328000", "133503.328000", "133523.281000", "133523.281000", "133523.296000", "133523.296000", "133523.296000", "133523.296000", "133523.296000", "133523.296000", "133523.296000", "133523.296000", "133523.312000", "133523.312000", "133523.312000", "133523.312000", "133523.312000", "133523.312000", "133523.312000", "133523.312000", "133523.328000", "133523.328000", "133543.281000", "133543.281000", "133543.296000", "133543.296000", "133543.296000", "133543.296000", "133543.296000", "133543.296000", "133543.312000", "133543.312000", "133543.312000", "133543.312000", "133543.312000", "133543.312000", "133543.312000", "133543.328000", "133543.328000", "133543.328000", "133543.328000", "133543.328000", "133603.281000", "133603.281000", "133603.296000", "133603.296000", "133603.296000", "133603.296000", "133603.296000", "133603.296000", "133603.296000", "133603.296000", "133603.312000", "133603.312000", "133603.312000", "133603.312000", "133603.312000", "133603.312000", "133603.312000", "133603.328000", "133603.328000", "133603.328000", "133623.281000", "133623.281000", "133623.296000", "133623.296000", "133623.296000", "133623.296000", "133623.296000", "133623.296000", "133623.296000", "133623.296000", "133623.312000", "133623.312000", "133623.312000", "133623.312000", "133623.312000", "133623.312000", "133623.312000", "133623.328000", "133623.328000", "133623.328000", "133643.281000", "133643.281000", "133643.296000", "133643.296000", "133643.296000", "133643.296000", "133643.296000", "133643.296000", "133643.296000", "133643.296000", "133643.312000", "133643.312000", "133643.312000", "133643.312000", "133643.312000", "133643.312000", "133643.312000", "133643.312000", "133643.328000", "133643.328000", "133703.281000", "133703.281000", "133703.296000", "133703.296000", "133703.296000", "133703.296000", "133703.312000", "133703.312000", "133703.312000", "133703.312000", "133703.312000", "133703.312000", "133703.312000", "133703.312000", "133703.328000", "133703.328000", "133703.328000", "133703.328000", "133703.328000", "133703.328000", "133723.281000", "133723.281000", "133723.296000", "133723.296000", "133723.296000", "133723.296000", "133723.296000", "133723.296000", "133723.312000", "133723.312000", "133723.312000", "133723.312000", "133723.312000", "133723.312000", "133723.312000", "133723.328000", "133723.328000", "133723.328000", "133723.328000", "133723.328000", "133743.281000", "133743.281000", "133743.296000", "133743.296000", "133743.296000", "133743.296000", "133743.296000", "133743.296000", "133743.296000", "133743.296000", "133743.312000", "133743.312000", "133743.312000", "133743.312000", "133743.312000", "133743.312000", "133743.312000", "133743.328000", "133743.328000", "133743.328000", "133807.000000", "133807.000000", "133807.000000", "133807.000000", "133807.000000", "133807.015000", "133807.015000", "133807.015000", "133807.015000", "133807.031000", "133807.031000", "133807.031000", "133807.031000", "133807.031000", "133807.031000", "133807.031000", "133807.046000", "133807.046000", "133807.046000"],
      "InstanceNumber": [1, 2, 3, 4, 5, 6, 7, 8, 9, 10, 11, 12, 13, 14, 15, 16, 17, 18, 19, 20, 21, 22, 23, 24, 25, 26, 27, 28, 29, 30, 31, 32, 33, 34, 35, 36, 37, 38, 39, 40, 41, 42, 43, 44, 45, 46, 47, 48, 49, 50, 51, 52, 53, 54, 55, 56, 57, 58, 59, 60, 61, 62, 63, 64, 65, 66, 67, 68, 69, 70, 71, 72, 73, 74, 75, 76, 77, 78, 79, 80, 81, 82, 83, 84, 85, 86, 87, 88, 89, 90, 91, 92, 93, 94, 95, 96, 97, 98, 99, 100, 101, 102, 103, 104, 105, 106, 107, 108, 109, 110, 111, 112, 113, 114, 115, 116, 117, 118, 119, 120, 121, 122, 123, 124, 125, 126, 127, 128, 129, 130, 131, 132, 133, 134, 135, 136, 137, 138, 139, 140, 141, 142, 143, 144, 145, 146, 147, 148, 149, 150, 151, 152, 153, 154, 155, 156, 157, 158, 159, 160, 161, 162, 163, 164, 165, 166, 167, 168, 169, 170, 171, 172, 173, 174, 175, 176, 177, 178, 179, 180, 181, 182, 183, 184, 185, 186, 187, 188, 189, 190, 191, 192, 193, 194, 195, 196, 197, 198, 199, 200, 201, 202, 203, 204, 205, 206, 207, 208, 209, 210, 211, 212, 213, 214, 215, 216, 217, 218, 219, 220, 221, 222, 223, 224, 225, 226, 227, 228, 229, 230, 231, 232, 233, 234, 235, 236, 237, 238, 239, 240, 241, 242, 243, 244, 245, 246, 247, 248, 249, 250, 251, 252, 253, 254, 255, 256, 257, 258, 259, 260, 261, 262, 263, 264, 265, 266, 267, 268, 269, 270, 271, 272, 273, 274, 275, 276, 277, 278, 279, 280, 281, 282, 283, 284, 285, 286, 287, 288, 289, 290, 291, 292, 293, 294, 295, 296, 297, 298, 299, 300, 301, 302, 303, 304, 305, 306, 307, 308, 309, 310, 311, 312, 313, 314, 315, 316, 317, 318, 319, 320, 321, 322, 323, 324, 325, 326, 327, 328, 329, 330],
      "LargestImagePixelValue": [2746, 2681, 2683, 2659, 2668, 2630, 2658, 2668, 2645, 2667, 2653, 2650, 2613, 2594, 2609, 2568, 2571, 2520, 2534, 2466, 2522, 2541, 2524, 2592, 2630, 2532, 2468, 2435, 2441, 2448, 2459, 2474, 2456, 2516, 2504, 2534, 2519, 2529, 2484, 2455, 2486, 2498, 2497, 2504, 2547, 2536, 2456, 2493, 2559, 2448, 2504, 2522, 2537, 2580, 2575, 2514, 2574, 2524, 2508, 2543, 2501, 2545, 2535, 2570, 2525, 2522, 2576, 2548, 2528, 2531, 2544, 2520, 2498, 2522, 2477, 2455, 2460, 2499, 2526, 2567, 2502, 2443, 2526, 2514, 2485, 2467, 2499, 2476, 2506, 2459, 2532, 2567, 2593, 2544, 2508, 2516, 2465, 2504, 2548, 2584, 2544, 2559, 2534, 2504, 2493, 2485, 2526, 2537, 2516, 2488, 2491, 2442, 2497, 2527, 2490, 2522, 2505, 2536, 2534, 2548, 2559, 2558, 2548, 2548, 2569, 2529, 2522, 2548, 2542, 2529, 2490, 2508, 2514, 2494, 2506, 2481, 2480, 2531, 2497, 2525, 2525, 2524, 2565, 2529, 2504, 2518, 2529, 2554, 2585, 2567, 2489, 2553, 2495, 2519, 2552, 2566, 2510, 2511, 2548, 2502, 2482, 2476, 2572, 2555, 2545, 2537, 2535, 2524, 2531, 2567, 2588, 2527, 2492, 2589, 2593, 2555, 2540, 2553, 2572, 2572, 2560, 2575, 2580, 2547, 2551, 2502, 2473, 2604, 2602, 2565, 2579, 2556, 2545, 2581, 2653, 2580, 2607, 2589, 2558, 2600, 2617, 2600, 2598, 2604, 2630, 2584, 2643, 2602, 2570, 2601, 2598, 2621, 2605, 2621, 2570, 2610, 2642, 2629, 2601, 2644, 2637, 2588, 2578, 2649, 2617, 2590, 2628, 2647, 2615, 2635, 2636, 2601, 2650, 2639, 2630, 2717, 2641, 2637, 2640, 2659, 2684, 2697, 2690, 2629, 2630, 2640, 2735, 2661, 2679, 2659, 2647, 2637, 2598, 2579, 2598, 2542, 2585, 2596, 2585, 2603, 2552, 2583, 2619, 2636, 2604, 2606, 2598, 2601, 2663, 2682, 2684, 2645, 2672, 2630, 2624, 2646, 2617, 2662, 2633, 2669, 2643, 2621, 2638, 2607, 2582, 2615, 2593, 2639, 2640, 2663, 2613, 2609, 2590, 2612, 2610, 2611, 2619, 2631, 2592, 2626, 2587, 2611, 2630, 2580, 2617, 2625, 2621, 2638, 2678, 2637, 2575, 2586, 2600, 2621, 2623, 2597, 2637, 2588, 2669, 2670, 2659, 2635, 2632, 2646, 2641, 2616, 2595, 2601, 2589, 2584],
      "WindowCenter": [431.0, 432.0, 432.0, 433.0, 432.0, 431.0, 430.0, 430.0, 430.0, 429.0, 429.0, 428.0, 428.0, 427.0, 428.0, 428.0, 428.0, 428.0, 428.0, 428.0, 429.0, 428.0, 428.0, 429.0, 429.0, 429.0, 428.0, 428.0, 427.0, 429.0, 430.0, 430.0, 430.0, 430.0, 430.0, 430.0, 430.0, 429.0, 428.0, 430.0, 430.0, 430.0, 429.0, 429.0, 428.0, 429.0, 429.0, 430.0, 431.0, 430.0, 430.0, 430.0, 429.0, 429.0, 429.0, 430.0, 430.0, 431.0, 430.0, 430.0, 429.0, 427.0, 427.0, 429.0, 430.0, 430.0, 431.0, 431.0, 430.0, 430.0, 430.0, 430.0, 431.0, 431.0, 430.0, 430.0, 431.0, 430.0, 431.0, 432.0, 433.0, 433.0, 434.0, 433.0, 431.0, 428.0, 426.0, 425.0, 426.0, 425.0, 424.0, 424.0, 425.0, 424.0, 425.0, 426.0, 426.0, 426.0, 425.0, 426.0, 425.0, 425.0, 424.0, 425.0, 425.0, 425.0, 425.0, 425.0, 425.0, 425.0, 427.0, 428.0, 429.0, 430.0, 430.0, 430.0, 430.0, 429.0, 428.0, 429.0, 430.0, 431.0, 430.0, 430.0, 428.0, 427.0, 426.0, 427.0, 428.0, 428.0, 428.0, 428.0, 428.0, 428.0, 429.0, 429.0, 429.0, 429.0, 429.0, 430.0, 430.0, 429.0, 429.0, 429.0, 428.0, 428.0, 427.0, 427.0, 427.0, 428.0, 428.0, 429.0, 427.0, 426.0, 426.0, 427.0, 427.0, 428.0, 429.0, 429.0, 429.0, 429.0, 429.0, 430.0, 429.0, 429.0, 429.0, 429.0, 429.0, 429.0, 429.0, 430.0, 430.0, 431.0, 431.0, 430.0, 430.0, 429.0, 428.0, 429.0, 431.0, 432.0, 431.0, 430.0, 431.0, 430.0, 427.0, 428.0, 428.0, 429.0, 429.0, 429.0, 430.0, 430.0, 431.0, 432.0, 433.0, 433.0, 432.0, 431.0, 433.0, 434.0, 434.0, 434.0, 433.0, 431.0, 432.0, 432.0, 431.0, 430.0, 431.0, 431.0, 432.0, 432.0, 432.0, 432.0, 431.0, 433.0, 433.0, 433.0, 433.0, 433.0, 433.0, 433.0, 434.0, 435.0, 435.0, 436.0, 437.0, 437.0, 436.0, 433.0, 433.0, 433.0, 434.0, 434.0, 434.0, 434.0, 433.0, 433.0, 432.0, 431.0, 431.0, 429.0, 428.0, 427.0, 429.0, 431.0, 434.0, 436.0, 436.0, 435.0, 432.0, 431.0, 429.0, 427.0, 428.0, 429.0, 430.0, 429.0, 429.0, 428.0, 429.0, 429.0, 429.0, 429.0, 427.0, 426.0, 427.0, 429.0, 430.0, 430.0, 429.0, 429.0, 429.0, 431.0, 429.0, 428.0, 429.0, 430.0, 430.0, 430.0, 431.0, 432.0, 432.0, 431.0, 430.0, 429.0, 429.0, 429.0, 430.0, 430.0, 429.0, 429.0, 428.0, 428.0, 429.0, 431.0, 431.0, 433.0, 432.0, 431.0, 431.0, 431.0, 431.0, 431.0, 430.0, 430.0, 433.0, 434.0, 434.0, 433.0, 432.0, 432.0, 432.0, 432.0, 433.0, 431.0, 432.0, 433.0, 434.0, 434.0, 432.0, 431.0, 431.0, 430.0, 431.0, 433.0, 433.0, 431.0],
