{
  "AcquisitionMatrixPE": 104,
  "AcquisitionNumber": 1,
  "AcquisitionTime": "13:42:11.252500",
  "BandwidthPerPixelPhaseEncode": 43.054,
  "BaseResolution": 104,
  "CoilString": "C:E1_2",
  "ConversionSoftware": "dcm2niix",
  "ConversionSoftwareVersion": "v1.0.20191031",
  "DerivedVendorReportedEchoSpacing": 0.000669999,
  "DeviceSerialNumber": "18932",
  "DwellTime": 2.8e-06,
  "EchoTime": 0.02,
  "EffectiveEchoSpacing": 0.000223333,
  "FlipAngle": 30,
  "ImageComments": "Unaliased_MB2_PE2",
  "ImageOrientationPatientDICOM": [1, 2e-16, 0, -2e-16, 0.961741, -0.273959],
  "ImageType": [
    "ORIGINAL",
    "PRIMARY",
    "M",
    "MB",
    "ND",
    "MOSAIC"
],
  "ImagingFrequency": 297.229,
  "InPlanePhaseEncodingDirectionDICOM": "COL",
  "InstitutionAddress": "Richmond_Street_North_1151_London_409EF2_Ontario_CA_N6A_5B7",
  "InstitutionName": "Robarts_Reserch_Institute",
  "InstitutionalDepartmentName": "Department",
  "MRAcquisitionType": "2D",
  "MagneticFieldStrength": 6.98,
  "Manufacturer": "Siemens",
  "ManufacturersModelName": "Investigational_Device_7T",
  "Modality": "MR",
  "MultibandAccelerationFactor": 2,
  "ParallelReductionFactorInPlane": 3,
  "PartialFourier": 0.875,
  "PatientPosition": "HFS",
  "PercentPhaseFOV": 100,
  "PhaseEncodingDirection": "j-",
  "PhaseEncodingSteps": 91,
  "PhaseResolution": 1,
  "PixelBandwidth": 1717,
  "ProcedureStepDescription": "Diedrichsen_SeqRep4",
  "ProtocolName": "mbep2d_bold_mb2_p3_AP_2iso",
  "PulseSequenceDetails": "%CustomerSeq%_cmrr_mbep2d_bold",
  "ReceiveCoilName": "CFMM_8Tx32Rx",
  "ReconMatrixPE": 104,
  "RefLinesPE": 36,
  "RepetitionTime": 1,
  "ScanOptions": "PFP_FS",
  "ScanningSequence": "EP",
  "SequenceName": "epfid2d1_104",
  "SequenceVariant": "SK_SS",
  "SeriesDescription": "mbep2d_bold_mb2_p3_AP_2iso",
  "SeriesNumber": 32,
  "ShimSetting": [29, 2057, 86, 1756, 53, 131, 355, -110],
  "SliceThickness": 2,
  "SliceTiming": [0, 0.23, 0.4575, 0.685, 0.9125, 0.1375, 0.365, 0.595, 0.8225, 0.0475, 0.275, 0.5025, 0.73, 0.96, 0.1825, 0.4125, 0.64, 0.8675, 0.0925, 0.32, 0.5475, 0.7775, 0, 0.23, 0.4575, 0.685, 0.9125, 0.1375, 0.365, 0.595, 0.8225, 0.0475, 0.275, 0.5025, 0.73, 0.96, 0.1825, 0.4125, 0.64, 0.8675, 0.0925, 0.32, 0.5475, 0.7775],
  "SoftwareVersions": "syngo_MR_B17",
  "SpacingBetweenSlices": 2,
  "StationName": "MASTER",
  "TaskName": "dsp",
  "TotalReadoutTime": 0.0230033,
  "TxRefAmp": 120,
  "dcmmeta_affine": [
    [-2.0, -4.000000067449534e-16, 1.0958368979349813e-16, 105.4527816772461],
    [-4.000000067449534e-16, 1.9234826564788818, -0.547918438911438, -102.30016326904297],
    [0.0, 0.547918438911438, 1.9234826564788818, -44.65082550048828],
    [0.0, 0.0, 0.0, 1.0]
],
  "dcmmeta_reorient_transform": [
    [0.0, -1.0, 0.0, 103.0],
    [1.0, 0.0, 0.0, 0.0],
    [0.0, 0.0, 1.0, 0.0],
    [0.0, 0.0, 0.0, 1.0]
],
  "dcmmeta_shape": [104, 104, 44, 330],
  "dcmmeta_slice_dim": 2,
  "dcmmeta_version": 0.6,
  "global": {
    "const": {
      "AcquisitionMatrix": [104, 0, 0, 104],
      "AngioFlag": "N",
      "BitsAllocated": 16,
      "BitsStored": 12,
      "Columns": 728,
      "EchoNumbers": 1,
      "EchoTime": 20.0,
      "EchoTrainLength": 1,
      "FlipAngle": 30.0,
      "HighBit": 11,
      "ImageOrientationPatient": [1.0, 2e-16, 0.0, -2e-16, 0.96174130993141, -0.2739592173507],
      "ImagePositionPatient": [-729.45278453827, -695.94512226517, 182.73532666503],
      "ImageType": [
        "ORIGINAL",
        "PRIMARY",
        "M",
        "MB",
        "ND",
        "MOSAIC"
],
      "ImagedNucleus": "1H",
      "ImagingFrequency": 297.228802,
      "InPlanePhaseEncodingDirection": "COL",
      "MRAcquisitionType": "2D",
      "MagneticFieldStrength": 6.98,
      "Manufacturer": "SIEMENS",
      "ManufacturerModelName": "Investigational_Device_7T",
      "Modality": "MR",
      "NumberOfAverages": 1.0,
      "NumberOfPhaseEncodingSteps": 91,
      "PercentPhaseFieldOfView": 100.0,
      "PercentSampling": 100.0,
      "PerformedProcedureStepStartTime": "122510.093000",
      "PhotometricInterpretation": "MONOCHROME2",
      "PixelBandwidth": 1717.0,
      "PixelRepresentation": 0,
      "PixelSpacing": [2.0, 2.0],
      "ProtocolName": "mbep2d_bold_mb2_p3_AP 2iso",
      "RepetitionTime": 1000.0,
      "Rows": 728,
      "SAR": 0.0,
      "SamplesPerPixel": 1,
      "ScanOptions": [
        "PFP",
        "FS"
],
      "ScanningSequence": "EP",
      "SequenceName": "epfid2d1_104",
      "SequenceVariant": [
        "SK",
        "SS"
],
      "SeriesDescription": "mbep2d_bold_mb2_p3_AP 2iso",
      "SeriesNumber": 32,
      "SeriesTime": "134236.578000",
      "SliceLocation": -14.916468577237,
      "SliceThickness": 2.0,
      "SmallestImagePixelValue": 0,
      "SoftwareVersions": "syngo MR B17",
      "SpacingBetweenSlices": 2.0000000104656,
      "SpecificCharacterSet": "ISO_IR 100",
      "StudyID": "1",
      "StudyTime": "122510.031000",
      "TransmitCoilName": "CFMM_8Tx32Rx",
      "VariableFlipAngleFlag": "N",
      "WindowCenterWidthExplanation": "Algo1",
      "dBdt": 0.0},
    "slices": {}
  },
  "time": {
    "samples": {
      "AcquisitionNumber": [1, 2, 3, 4, 5, 6, 7, 8, 9, 10, 11, 12, 13, 14, 15, 16, 17, 18, 19, 20, 21, 22, 23, 24, 25, 26, 27, 28, 29, 30, 31, 32, 33, 34, 35, 36, 37, 38, 39, 40, 41, 42, 43, 44, 45, 46, 47, 48, 49, 50, 51, 52, 53, 54, 55, 56, 57, 58, 59, 60, 61, 62, 63, 64, 65, 66, 67, 68, 69, 70, 71, 72, 73, 74, 75, 76, 77, 78, 79, 80, 81, 82, 83, 84, 85, 86, 87, 88, 89, 90, 91, 92, 93, 94, 95, 96, 97, 98, 99, 100, 101, 102, 103, 104, 105, 106, 107, 108, 109, 110, 111, 112, 113, 114, 115, 116, 117, 118, 119, 120, 121, 122, 123, 124, 125, 126, 127, 128, 129, 130, 131, 132, 133, 134, 135, 136, 137, 138, 139, 140, 141, 142, 143, 144, 145, 146, 147, 148, 149, 150, 151, 152, 153, 154, 155, 156, 157, 158, 159, 160, 161, 162, 163, 164, 165, 166, 167, 168, 169, 170, 171, 172, 173, 174, 175, 176, 177, 178, 179, 180, 181, 182, 183, 184, 185, 186, 187, 188, 189, 190, 191, 192, 193, 194, 195, 196, 197, 198, 199, 200, 201, 202, 203, 204, 205, 206, 207, 208, 209, 210, 211, 212, 213, 214, 215, 216, 217, 218, 219, 220, 221, 222, 223, 224, 225, 226, 227, 228, 229, 230, 231, 232, 233, 234, 235, 236, 237, 238, 239, 240, 241, 242, 243, 244, 245, 246, 247, 248, 249, 250, 251, 252, 253, 254, 255, 256, 257, 258, 259, 260, 261, 262, 263, 264, 265, 266, 267, 268, 269, 270, 271, 272, 273, 274, 275, 276, 277, 278, 279, 280, 281, 282, 283, 284, 285, 286, 287, 288, 289, 290, 291, 292, 293, 294, 295, 296, 297, 298, 299, 300, 301, 302, 303, 304, 305, 306, 307, 308, 309, 310, 311, 312, 313, 314, 315, 316, 317, 318, 319, 320, 321, 322, 323, 324, 325, 326, 327, 328, 329, 330],
      "AcquisitionTime": ["134211.252500", "134212.257500", "134213.262500", "134214.265000", "134215.270000", "134216.272500", "134217.277500", "134218.282500", "134219.285000", "134220.290000", "134221.292500", "134222.297500", "134223.302500", "134224.305000", "134225.310000", "134226.312500", "134227.317500", "134228.322500", "134229.325000", "134230.330000", "134231.332500", "134232.337500", "134233.342500", "134234.345000", "134235.350000", "134236.355000", "134237.357500", "134238.362500", "134239.365000", "134240.370000", "134241.375000", "134242.377500", "134243.382500", "134244.385000", "134245.390000", "134246.395000", "134247.397500", "134248.402500", "134249.405000", "134250.410000", "134251.415000", "134252.417500", "134253.422500", "134254.425000", "134255.430000", "134256.435000", "134257.437500", "134258.442500", "134259.445000", "134300.450000", "134301.455000", "134302.457500", "134303.462500", "134304.467500", "134305.470000", "134306.475000", "134307.477500", "134308.482500", "134309.487500", "134310.490000", "134311.495000", "134312.497500", "134313.502500", "134314.507500", "134315.510000", "134316.515000", "134317.517500", "134318.522500", "134319.527500", "134320.530000", "134321.535000", "134322.537500", "134323.542500", "134324.547500", "134325.550000", "134326.555000", "134327.557500", "134328.562500", "134329.567500", "134330.570000", "134331.575000", "134332.577500", "134333.582500", "134334.587500", "134335.590000", "134336.595000", "134337.600000", "134338.602500", "134339.607500", "134340.610000", "134341.615000", "134342.620000", "134343.622500", "134344.627500", "134345.630000", "134346.635000", "134347.640000", "134348.642500", "134349.647500", "134350.650000", "134351.655000", "134352.660000", "134353.662500", "134354.667500", "134355.670000", "134356.675000", "134357.680000", "134358.682500", "134359.687500", "134400.690000", "134401.695000", "134402.700000", "134403.702500", "134404.707500", "134405.710000", "134406.715000", "134407.720000", "134408.722500", "134409.727500", "134410.732500", "134411.735000", "134412.740000", "134413.742500", "134414.747500", "134415.752500", "134416.755000", "134417.760000", "134418.762500", "134419.767500", "134420.772500", "134421.775000", "134422.780000", "134423.782500", "134424.787500", "134425.792500", "134426.795000", "134427.800000", "134428.802500", "134429.807500", "134430.812500", "134431.815000", "134432.820000", "134433.822500", "134434.827500", "134435.832500", "134436.835000", "134437.840000", "134438.845000", "134439.847500", "134440.852500", "134441.855000", "134442.860000", "134443.865000", "134444.867500", "134445.872500", "134446.875000", "134447.880000", "134448.885000", "134449.887500", "134450.892500", "134451.895000", "134452.900000", "134453.905000", "134454.907500", "134455.912500", "134456.915000", "134457.920000", "134458.925000", "134459.927500", "134500.932500", "134501.935000", "134502.940000", "134503.945000", "134504.947500", "134505.952500", "134506.955000", "134507.960000", "134508.965000", "134509.967500", "134510.972500", "134511.977500", "134512.980000", "134513.985000", "134514.987500", "134515.992500", "134516.997500", "134518.000000", "134519.005000", "134520.007500", "134521.012500", "134522.017500", "134523.020000", "134524.025000", "134525.027500", "134526.032500", "134527.037500", "134528.040000", "134529.045000", "134530.047500", "134531.052500", "134532.057500", "134533.060000", "134534.065000", "134535.067500", "134536.072500", "134537.077500", "134538.080000", "134539.085000", "134540.090000", "134541.092500", "134542.097500", "134543.100000", "134544.105000", "134545.110000", "134546.112500", "134547.117500", "134548.120000", "134549.125000", "134550.130000", "134551.132500", "134552.137500", "134553.140000", "134554.145000", "134555.150000", "134556.152500", "134557.157500", "134558.160000", "134559.165000", "134600.170000", "134601.172500", "134602.177500", "134603.180000", "134604.185000", "134605.190000", "134606.192500", "134607.197500", "134608.200000", "134609.205000", "134610.210000", "134611.212500", "134612.217500", "134613.222500", "134614.225000", "134615.230000", "134616.232500", "134617.237500", "134618.242500", "134619.245000", "134620.250000", "134621.252500", "134622.257500", "134623.262500", "134624.265000", "134625.270000", "134626.272500", "134627.277500", "134628.282500", "134629.285000", "134630.290000", "134631.292500", "134632.297500", "134633.302500", "134634.305000", "134635.310000", "134636.312500", "134637.317500", "134638.322500", "134639.325000", "134640.330000", "134641.332500", "134642.337500", "134643.342500", "134644.345000", "134645.350000", "134646.355000", "134647.357500", "134648.362500", "134649.365000", "134650.370000", "134651.375000", "134652.377500", "134653.382500", "134654.385000", "134655.390000", "134656.395000", "134657.397500", "134658.402500", "134659.405000", "134700.410000", "134701.415000", "134702.417500", "134703.422500", "134704.425000", "134705.430000", "134706.435000", "134707.437500", "134708.442500", "134709.445000", "134710.450000", "134711.455000", "134712.457500", "134713.462500", "134714.467500", "134715.470000", "134716.475000", "134717.477500", "134718.482500", "134719.487500", "134720.490000", "134721.495000", "134722.497500", "134723.502500", "134724.507500", "134725.510000", "134726.515000", "134727.517500", "134728.522500", "134729.527500", "134730.530000", "134731.535000", "134732.537500", "134733.542500", "134734.547500", "134735.550000", "134736.555000", "134737.557500", "134738.562500", "134739.567500", "134740.570000", "134741.575000"],
      "ContentTime": ["134236.578000", "134236.578000", "134236.578000", "134236.578000", "134236.578000", "134236.593000", "134236.593000", "134236.593000", "134236.593000", "134236.593000", "134236.593000", "134236.593000", "134236.609000", "134236.609000", "134236.609000", "134236.609000", "134236.609000", "134236.609000", "134236.609000", "134236.625000", "134236.625000", "134236.625000", "134236.625000", "134236.640000", "134256.531000", "134256.546000", "134256.546000", "134256.546000", "134256.546000", "134256.562000", "134256.562000", "134256.562000", "134256.562000", "134256.562000", "134256.562000", "134256.562000", "134256.578000", "134256.578000", "134256.578000", "134256.578000", "134256.578000", "134256.578000", "134256.578000", "134256.593000", "134316.531000", "134316.546000", "134316.546000", "134316.546000", "134316.546000", "134316.546000", "134316.546000", "134316.562000", "134316.562000", "134316.562000", "134316.562000", "134316.562000", "134316.562000", "134316.562000", "134316.578000", "134316.578000", "134316.578000", "134316.578000", "134316.578000", "134316.578000", "134336.531000", "134336.546000", "134336.546000", "134336.546000", "134336.546000", "134336.546000", "134336.562000", "134336.562000", "134336.562000", "134336.562000", "134336.562000", "134336.562000", "134336.562000", "134336.578000", "134336.578000", "134336.578000", "134336.578000", "134336.578000", "134336.578000", "134336.578000", "134356.531000", "134356.546000", "134356.546000", "134356.546000", "134356.546000", "134356.562000", "134356.562000", "134356.562000", "134356.562000", "134356.562000", "134356.562000", "134356.578000", "134356.578000", "134356.578000", "134356.578000", "134356.578000", "134356.593000", "134356.593000", "134356.593000", "134356.593000", "134416.531000", "134416.546000", "134416.546000", "134416.546000", "134416.546000", "134416.546000", "134416.562000", "134416.562000", "134416.562000", "134416.562000", "134416.562000", "134416.578000", "134416.578000", "134416.578000", "134416.578000", "134416.578000", "134416.578000", "134416.578000", "134416.593000", "134416.593000", "134436.531000", "134436.546000", "134436.546000", "134436.546000", "134436.546000", "134436.546000", "134436.546000", "134436.546000", "134436.562000", "134436.562000", "134436.562000", "134436.562000", "134436.562000", "134436.562000", "134436.562000", "134436.562000", "134436.578000", "134436.578000", "134436.578000", "134436.578000", "134456.546000", "134456.546000", "134456.546000", "134456.546000", "134456.562000", "134456.562000", "134456.562000", "134456.562000", "134456.562000", "134456.562000", "134456.562000", "134456.578000", "134456.578000", "134456.578000", "134456.578000", "134456.578000", "134456.578000", "134456.578000", "134456.593000", "134456.593000", "134516.531000", "134516.546000", "134516.546000", "134516.546000", "134516.546000", "134516.562000", "134516.562000", "134516.562000", "134516.562000", "134516.562000", "134516.578000", "134516.578000", "134516.578000", "134516.578000", "134516.578000", "134516.578000", "134516.578000", "134516.593000", "134516.593000", "134516.593000", "134536.531000", "134536.546000", "134536.546000", "134536.546000", "134536.546000", "134536.546000", "134536.546000", "134536.546000", "134536.562000", "134536.562000", "134536.562000", "134536.562000", "134536.578000", "134536.578000", "134536.578000", "134536.578000", "134536.578000", "134536.578000", "134536.593000", "134536.593000", "134556.531000", "134556.546000", "134556.546000", "134556.546000", "134556.546000", "134556.546000", "134556.546000", "134556.546000", "134556.562000", "134556.562000", "134556.562000", "134556.562000", "134556.562000", "134556.562000", "134556.562000", "134556.578000", "134556.578000", "134556.578000", "134556.578000", "134556.578000", "134616.531000", "134616.546000", "134616.546000", "134616.546000", "134616.546000", "134616.546000", "134616.546000", "134616.546000", "134616.562000", "134616.562000", "134616.562000", "134616.562000", "134616.562000", "134616.578000", "134616.578000", "134616.578000", "134616.578000", "134616.578000", "134616.578000", "134616.578000", "134636.531000", "134636.546000", "134636.546000", "134636.546000", "134636.546000", "134636.546000", "134636.546000", "134636.546000", "134636.562000", "134636.562000", "134636.562000", "134636.562000", "134636.562000", "134636.578000", "134636.578000", "134636.578000", "134636.578000", "134636.593000", "134636.593000", "134636.593000", "134656.531000", "134656.546000", "134656.546000", "134656.546000", "134656.546000", "134656.546000", "134656.546000", "134656.546000", "134656.562000", "134656.562000", "134656.562000", "134656.562000", "134656.562000", "134656.562000", "134656.562000", "134656.578000", "134656.578000", "134656.578000", "134656.578000", "134656.578000", "134716.531000", "134716.546000", "134716.546000", "134716.546000", "134716.546000", "134716.546000", "134716.546000", "134716.546000", "134716.562000", "134716.562000", "134716.562000", "134716.562000", "134716.562000", "134716.562000", "134716.562000", "134716.578000", "134716.578000", "134716.578000", "134716.578000", "134716.578000", "134736.531000", "134736.546000", "134736.546000", "134736.546000", "134736.546000", "134736.546000", "134736.546000", "134736.546000", "134736.562000", "134736.562000", "134736.562000", "134736.562000", "134736.578000", "134736.578000", "134736.578000", "134736.578000", "134736.578000", "134736.578000", "134736.578000", "134736.593000", "134747.265000", "134747.281000", "134747.281000", "134747.281000", "134747.281000", "134747.281000"],
      "InstanceCreationTime": ["134236.578000", "134236.578000", "134236.578000", "134236.578000", "134236.578000", "134236.593000", "134236.593000", "134236.593000", "134236.593000", "134236.593000", "134236.593000", "134236.593000", "134236.609000", "134236.609000", "134236.609000", "134236.609000", "134236.609000", "134236.609000", "134236.609000", "134236.625000", "134236.625000", "134236.625000", "134236.625000", "134236.640000", "134256.531000", "134256.546000", "134256.546000", "134256.546000", "134256.546000", "134256.562000", "134256.562000", "134256.562000", "134256.562000", "134256.562000", "134256.562000", "134256.562000", "134256.578000", "134256.578000", "134256.578000", "134256.578000", "134256.578000", "134256.578000", "134256.578000", "134256.593000", "134316.531000", "134316.546000", "134316.546000", "134316.546000", "134316.546000", "134316.546000", "134316.546000", "134316.562000", "134316.562000", "134316.562000", "134316.562000", "134316.562000", "134316.562000", "134316.562000", "134316.578000", "134316.578000", "134316.578000", "134316.578000", "134316.578000", "134316.578000", "134336.531000", "134336.546000", "134336.546000", "134336.546000", "134336.546000", "134336.546000", "134336.562000", "134336.562000", "134336.562000", "134336.562000", "134336.562000", "134336.562000", "134336.562000", "134336.578000", "134336.578000", "134336.578000", "134336.578000", "134336.578000", "134336.578000", "134336.578000", "134356.531000", "134356.546000", "134356.546000", "134356.546000", "134356.546000", "134356.562000", "134356.562000", "134356.562000", "134356.562000", "134356.562000", "134356.562000", "134356.578000", "134356.578000", "134356.578000", "134356.578000", "134356.578000", "134356.593000", "134356.593000", "134356.593000", "134356.593000", "134416.531000", "134416.546000", "134416.546000", "134416.546000", "134416.546000", "134416.546000", "134416.562000", "134416.562000", "134416.562000", "134416.562000", "134416.562000", "134416.578000", "134416.578000", "134416.578000", "134416.578000", "134416.578000", "134416.578000", "134416.578000", "134416.593000", "134416.593000", "134436.531000", "134436.546000", "134436.546000", "134436.546000", "134436.546000", "134436.546000", "134436.546000", "134436.546000", "134436.562000", "134436.562000", "134436.562000", "134436.562000", "134436.562000", "134436.562000", "134436.562000", "134436.562000", "134436.578000", "134436.578000", "134436.578000", "134436.578000", "134456.546000", "134456.546000", "134456.546000", "134456.546000", "134456.562000", "134456.562000", "134456.562000", "134456.562000", "134456.562000", "134456.562000", "134456.562000", "134456.578000", "134456.578000", "134456.578000", "134456.578000", "134456.578000", "134456.578000", "134456.578000", "134456.593000", "134456.593000", "134516.531000", "134516.546000", "134516.546000", "134516.546000", "134516.546000", "134516.562000", "134516.562000", "134516.562000", "134516.562000", "134516.562000", "134516.578000", "134516.578000", "134516.578000", "134516.578000", "134516.578000", "134516.578000", "134516.578000", "134516.593000", "134516.593000", "134516.593000", "134536.531000", "134536.546000", "134536.546000", "134536.546000", "134536.546000", "134536.546000", "134536.546000", "134536.546000", "134536.562000", "134536.562000", "134536.562000", "134536.562000", "134536.578000", "134536.578000", "134536.578000", "134536.578000", "134536.578000", "134536.578000", "134536.593000", "134536.593000", "134556.531000", "134556.546000", "134556.546000", "134556.546000", "134556.546000", "134556.546000", "134556.546000", "134556.546000", "134556.562000", "134556.562000", "134556.562000", "134556.562000", "134556.562000", "134556.562000", "134556.562000", "134556.578000", "134556.578000", "134556.578000", "134556.578000", "134556.578000", "134616.531000", "134616.546000", "134616.546000", "134616.546000", "134616.546000", "134616.546000", "134616.546000", "134616.546000", "134616.562000", "134616.562000", "134616.562000", "134616.562000", "134616.562000", "134616.578000", "134616.578000", "134616.578000", "134616.578000", "134616.578000", "134616.578000", "134616.578000", "134636.531000", "134636.546000", "134636.546000", "134636.546000", "134636.546000", "134636.546000", "134636.546000", "134636.546000", "134636.562000", "134636.562000", "134636.562000", "134636.562000", "134636.562000", "134636.578000", "134636.578000", "134636.578000", "134636.578000", "134636.593000", "134636.593000", "134636.593000", "134656.531000", "134656.546000", "134656.546000", "134656.546000", "134656.546000", "134656.546000", "134656.546000", "134656.546000", "134656.562000", "134656.562000", "134656.562000", "134656.562000", "134656.562000", "134656.562000", "134656.562000", "134656.578000", "134656.578000", "134656.578000", "134656.578000", "134656.578000", "134716.531000", "134716.546000", "134716.546000", "134716.546000", "134716.546000", "134716.546000", "134716.546000", "134716.546000", "134716.562000", "134716.562000", "134716.562000", "134716.562000", "134716.562000", "134716.562000", "134716.562000", "134716.578000", "134716.578000", "134716.578000", "134716.578000", "134716.578000", "134736.531000", "134736.546000", "134736.546000", "134736.546000", "134736.546000", "134736.546000", "134736.546000", "134736.546000", "134736.562000", "134736.562000", "134736.562000", "134736.562000", "134736.578000", "134736.578000", "134736.578000", "134736.578000", "134736.578000", "134736.578000", "134736.578000", "134736.593000", "134747.265000", "134747.281000", "134747.281000", "134747.281000", "134747.281000", "134747.281000"],
      "InstanceNumber": [1, 2, 3, 4, 5, 6, 7, 8, 9, 10, 11, 12, 13, 14, 15, 16, 17, 18, 19, 20, 21, 22, 23, 24, 25, 26, 27, 28, 29, 30, 31, 32, 33, 34, 35, 36, 37, 38, 39, 40, 41, 42, 43, 44, 45, 46, 47, 48, 49, 50, 51, 52, 53, 54, 55, 56, 57, 58, 59, 60, 61, 62, 63, 64, 65, 66, 67, 68, 69, 70, 71, 72, 73, 74, 75, 76, 77, 78, 79, 80, 81, 82, 83, 84, 85, 86, 87, 88, 89, 90, 91, 92, 93, 94, 95, 96, 97, 98, 99, 100, 101, 102, 103, 104, 105, 106, 107, 108, 109, 110, 111, 112, 113, 114, 115, 116, 117, 118, 119, 120, 121, 122, 123, 124, 125, 126, 127, 128, 129, 130, 131, 132, 133, 134, 135, 136, 137, 138, 139, 140, 141, 142, 143, 144, 145, 146, 147, 148, 149, 150, 151, 152, 153, 154, 155, 156, 157, 158, 159, 160, 161, 162, 163, 164, 165, 166, 167, 168, 169, 170, 171, 172, 173, 174, 175, 176, 177, 178, 179, 180, 181, 182, 183, 184, 185, 186, 187, 188, 189, 190, 191, 192, 193, 194, 195, 196, 197, 198, 199, 200, 201, 202, 203, 204, 205, 206, 207, 208, 209, 210, 211, 212, 213, 214, 215, 216, 217, 218, 219, 220, 221, 222, 223, 224, 225, 226, 227, 228, 229, 230, 231, 232, 233, 234, 235, 236, 237, 238, 239, 240, 241, 242, 243, 244, 245, 246, 247, 248, 249, 250, 251, 252, 253, 254, 255, 256, 257, 258, 259, 260, 261, 262, 263, 264, 265, 266, 267, 268, 269, 270, 271, 272, 273, 274, 275, 276, 277, 278, 279, 280, 281, 282, 283, 284, 285, 286, 287, 288, 289, 290, 291, 292, 293, 294, 295, 296, 297, 298, 299, 300, 301, 302, 303, 304, 305, 306, 307, 308, 309, 310, 311, 312, 313, 314, 315, 316, 317, 318, 319, 320, 321, 322, 323, 324, 325, 326, 327, 328, 329, 330],
      "LargestImagePixelValue": [2749, 2764, 2679, 2728, 2696, 2635, 2660, 2715, 2687, 2642, 2729, 2688, 2674, 2650, 2703, 2722, 2658, 2708, 2695, 2663, 2725, 2734, 2722, 2641, 2674, 2681, 2666, 2703, 2704, 2624, 2658, 2716, 2684, 2630, 2679, 2699, 2684, 2683, 2685, 2648, 2657, 2681, 2745, 2620, 2695, 2706, 2661, 2676, 2650, 2683, 2637, 2647, 2662, 2683, 2664, 2685, 2728, 2673, 2741, 2687, 2648, 2634, 2653, 2631, 2648, 2663, 2720, 2727, 2666, 2671, 2753, 2737, 2708, 2714, 2688, 2687, 2670, 2724, 2717, 2663, 2671, 2736, 2706, 2638, 2631, 2730, 2690, 2697, 2705, 2667, 2663, 2692, 2730, 2678, 2669, 2685, 2705, 2693, 2631, 2619, 2673, 2714, 2655, 2741, 2707, 2661, 2713, 2688, 2679, 2674, 2642, 2695, 2711, 2668, 2698, 2676, 2642, 2708, 2656, 2632, 2725, 2733, 2665, 2723, 2707, 2639, 2695, 2705, 2729, 2661, 2676, 2730, 2684, 2694, 2666, 2699, 2712, 2736, 2691, 2645, 2676, 2697, 2701, 2652, 2695, 2716, 2699, 2700, 2717, 2692, 2678, 2683, 2719, 2670, 2673, 2725, 2675, 2654, 2701, 2701, 2651, 2637, 2678, 2700, 2639, 2690, 2758, 2697, 2661, 2739, 2667, 2685, 2757, 2680, 2655, 2666, 2741, 2700, 2649, 2657, 2678, 2696, 2644, 2704, 2668, 2700, 2694, 2722, 2679, 2686, 2726, 2699, 2645, 2636, 2662, 2700, 2701, 2752, 2707, 2665, 2681, 2697, 2729, 2672, 2669, 2696, 2704, 2688, 2716, 2686, 2681, 2674, 2728, 2690, 2688, 2693, 2735, 2722, 2701, 2703, 2694, 2717, 2700, 2647, 2677, 2689, 2716, 2692, 2712, 2615, 2737, 2717, 2691, 2708, 2663, 2649, 2662, 2712, 2710, 2654, 2663, 2685, 2697, 2683, 2652, 2684, 2730, 2709, 2640, 2742, 2681, 2669, 2760, 2725, 2624, 2675, 2705, 2685, 2690, 2668, 2717, 2717, 2702, 2719, 2720, 2683, 2765, 2706, 2639, 2679, 2737, 2655, 2678, 2733, 2675, 2710, 2759, 2723, 2708, 2719, 2728, 2714, 2705, 2727, 2669, 2687, 2765, 2726, 2687, 2677, 2705, 2749, 2693, 2684, 2710, 2730, 2711, 2708, 2719, 2685, 2715, 2674, 2728, 2684, 2645, 2717, 2723, 2719, 2634, 2692, 2729, 2705, 2708, 2762, 2704, 2760, 2702, 2759, 2659, 2747, 2744, 2727, 2670, 2688, 2681, 2678, 2718, 2697, 2680, 2733],
      "WindowCenter": [441.0, 441.0, 441.0, 441.0, 440.0, 439.0, 439.0, 438.0, 438.0, 437.0, 438.0, 439.0, 439.0, 439.0, 440.0, 440.0, 439.0, 438.0, 437.0, 436.0, 436.0, 437.0, 438.0, 437.0, 438.0, 439.0, 438.0, 438.0, 438.0, 438.0, 437.0, 438.0, 438.0, 438.0, 438.0, 437.0, 437.0, 437.0, 437.0, 438.0, 438.0, 438.0, 439.0, 438.0, 438.0, 438.0, 438.0, 437.0, 436.0, 436.0, 437.0, 437.0, 437.0, 438.0, 437.0, 438.0, 438.0, 439.0, 440.0, 439.0, 439.0, 438.0, 437.0, 437.0, 436.0, 437.0, 438.0, 439.0, 439.0, 439.0, 440.0, 439.0, 439.0, 438.0, 437.0, 436.0, 436.0, 436.0, 437.0, 437.0, 438.0, 439.0, 439.0, 438.0, 438.0, 438.0, 438.0, 438.0, 439.0, 439.0, 440.0, 440.0, 440.0, 439.0, 438.0, 437.0, 437.0, 437.0, 437.0, 438.0, 440.0, 440.0, 440.0, 439.0, 438.0, 438.0, 438.0, 438.0, 438.0, 440.0, 440.0, 440.0, 439.0, 438.0, 437.0, 438.0, 437.0, 438.0, 439.0, 439.0, 439.0, 438.0, 438.0, 438.0, 437.0, 438.0, 438.0, 439.0, 439.0, 437.0, 437.0, 437.0, 437.0, 437.0, 436.0, 437.0, 437.0, 438.0, 439.0, 438.0, 437.0, 437.0, 437.0, 437.0, 437.0, 437.0, 438.0, 439.0, 440.0, 440.0, 440.0, 439.0, 438.0, 438.0, 438.0, 438.0, 439.0, 438.0, 438.0, 438.0, 439.0, 438.0, 438.0, 438.0, 438.0, 438.0, 438.0, 439.0, 439.0, 439.0, 438.0, 437.0, 437.0, 437.0, 439.0, 440.0, 440.0, 439.0, 438.0, 436.0, 435.0, 435.0, 436.0, 437.0, 438.0, 439.0, 439.0, 440.0, 439.0, 438.0, 438.0, 438.0, 438.0, 439.0, 439.0, 439.0, 438.0, 438.0, 437.0, 436.0, 437.0, 437.0, 438.0, 438.0, 438.0, 438.0, 438.0, 438.0, 438.0, 438.0, 438.0, 438.0, 438.0, 438.0, 438.0, 438.0, 438.0, 438.0, 438.0, 438.0, 438.0, 439.0, 439.0, 438.0, 438.0, 438.0, 439.0, 438.0, 438.0, 438.0, 440.0, 440.0, 440.0, 439.0, 439.0, 438.0, 437.0, 438.0, 438.0, 437.0, 439.0, 440.0, 439.0, 438.0, 437.0, 436.0, 436.0, 436.0, 437.0, 440.0, 441.0, 441.0, 441.0, 441.0, 439.0, 439.0, 438.0, 438.0, 437.0, 437.0, 438.0, 438.0, 438.0, 440.0, 440.0, 439.0, 439.0, 438.0, 437.0, 437.0, 438.0, 438.0, 438.0, 438.0, 438.0, 438.0, 438.0, 438.0, 439.0, 439.0, 439.0, 440.0, 438.0, 438.0, 437.0, 438.0, 437.0, 437.0, 437.0, 438.0, 438.0, 440.0, 440.0, 439.0, 439.0, 439.0, 439.0, 438.0, 438.0, 438.0, 438.0, 438.0, 440.0, 440.0, 440.0, 440.0, 440.0, 438.0, 438.0, 437.0, 438.0, 438.0, 438.0, 440.0, 440.0, 440.0, 439.0, 438.0, 438.0, 439.0, 439.0, 439.0, 438.0, 438.0, 438.0, 438.0, 438.0, 438.0, 438.0, 439.0],
