{
  "AcquisitionMatrixPE": 104,
  "AcquisitionNumber": 1,
  "AcquisitionTime": "13:35:43.740000",
  "BandwidthPerPixelPhaseEncode": 43.054,
  "BaseResolution": 104,
  "CoilString": "C:E1_2",
  "ConversionSoftware": "dcm2niix",
  "ConversionSoftwareVersion": "v1.0.20191031",
  "DerivedVendorReportedEchoSpacing": 0.000669999,
  "DeviceSerialNumber": "18932",
  "DwellTime": 2.8e-06,
  "EchoTime": 0.02,
  "EffectiveEchoSpacing": 0.000223333,
  "FlipAngle": 30,
  "ImageComments": "Unaliased_MB2_PE2",
  "ImageOrientationPatientDICOM": [1, 2e-16, 0, -2e-16, 0.961741, -0.273959],
  "ImageType": [
    "ORIGINAL",
    "PRIMARY",
    "M",
    "MB",
    "ND",
    "MOSAIC"
],
  "ImagingFrequency": 297.229,
  "InPlanePhaseEncodingDirectionDICOM": "COL",
  "InstitutionAddress": "Richmond_Street_North_1151_London_409EF2_Ontario_CA_N6A_5B7",
  "InstitutionName": "Robarts_Reserch_Institute",
  "InstitutionalDepartmentName": "Department",
  "MRAcquisitionType": "2D",
  "MagneticFieldStrength": 6.98,
  "Manufacturer": "Siemens",
  "ManufacturersModelName": "Investigational_Device_7T",
  "Modality": "MR",
  "MultibandAccelerationFactor": 2,
  "ParallelReductionFactorInPlane": 3,
  "PartialFourier": 0.875,
  "PatientPosition": "HFS",
  "PercentPhaseFOV": 100,
  "PhaseEncodingDirection": "j-",
  "PhaseEncodingSteps": 91,
  "PhaseResolution": 1,
  "PixelBandwidth": 1717,
  "ProcedureStepDescription": "Diedrichsen_SeqRep4",
  "ProtocolName": "mbep2d_bold_mb2_p3_AP_2iso",
  "PulseSequenceDetails": "%CustomerSeq%_cmrr_mbep2d_bold",
  "ReceiveCoilName": "CFMM_8Tx32Rx",
  "ReconMatrixPE": 104,
  "RefLinesPE": 36,
  "RepetitionTime": 1,
  "ScanOptions": "PFP_FS",
  "ScanningSequence": "EP",
  "SequenceName": "epfid2d1_104",
  "SequenceVariant": "SK_SS",
  "SeriesDescription": "mbep2d_bold_mb2_p3_AP_2iso",
  "SeriesNumber": 30,
  "ShimSetting": [29, 2057, 86, 1756, 53, 131, 355, -110],
  "SliceThickness": 2,
  "SliceTiming": [0, 0.2275, 0.4575, 0.685, 0.9125, 0.1375, 0.365, 0.5925, 0.8225, 0.0475, 0.275, 0.5025, 0.73, 0.9575, 0.1825, 0.41, 0.64, 0.8675, 0.0925, 0.32, 0.5475, 0.775, 0, 0.2275, 0.4575, 0.685, 0.9125, 0.1375, 0.365, 0.5925, 0.8225, 0.0475, 0.275, 0.5025, 0.73, 0.9575, 0.1825, 0.41, 0.64, 0.8675, 0.0925, 0.32, 0.5475, 0.775],
  "SoftwareVersions": "syngo_MR_B17",
  "SpacingBetweenSlices": 2,
  "StationName": "MASTER",
  "TaskName": "dsp",
  "TotalReadoutTime": 0.0230033,
  "TxRefAmp": 120,
  "dcmmeta_affine": [
    [-2.0, -4.000000067449534e-16, 1.0958368979349813e-16, 105.4527816772461],
    [-4.000000067449534e-16, 1.9234826564788818, -0.547918438911438, -102.30016326904297],
    [0.0, 0.547918438911438, 1.9234826564788818, -44.65082550048828],
    [0.0, 0.0, 0.0, 1.0]
],
  "dcmmeta_reorient_transform": [
    [0.0, -1.0, 0.0, 103.0],
    [1.0, 0.0, 0.0, 0.0],
    [0.0, 0.0, 1.0, 0.0],
    [0.0, 0.0, 0.0, 1.0]
],
  "dcmmeta_shape": [104, 104, 44, 330],
  "dcmmeta_slice_dim": 2,
  "dcmmeta_version": 0.6,
  "global": {
    "const": {
      "AcquisitionMatrix": [104, 0, 0, 104],
      "AngioFlag": "N",
      "BitsAllocated": 16,
      "BitsStored": 12,
      "Columns": 728,
      "EchoNumbers": 1,
      "EchoTime": 20.0,
      "EchoTrainLength": 1,
      "FlipAngle": 30.0,
      "HighBit": 11,
      "ImageOrientationPatient": [1.0, 2e-16, 0.0, -2e-16, 0.96174130993141, -0.2739592173507],
      "ImagePositionPatient": [-729.45278453827, -695.94512226517, 182.73532666503],
      "ImageType": [
        "ORIGINAL",
        "PRIMARY",
        "M",
        "MB",
        "ND",
        "MOSAIC"
],
      "ImagedNucleus": "1H",
      "ImagingFrequency": 297.228795,
      "InPlanePhaseEncodingDirection": "COL",
      "MRAcquisitionType": "2D",
      "MagneticFieldStrength": 6.98,
      "Manufacturer": "SIEMENS",
      "ManufacturerModelName": "Investigational_Device_7T",
      "Modality": "MR",
      "NumberOfAverages": 1.0,
      "NumberOfPhaseEncodingSteps": 91,
      "PercentPhaseFieldOfView": 100.0,
      "PercentSampling": 100.0,
      "PerformedProcedureStepStartTime": "122510.093000",
      "PhotometricInterpretation": "MONOCHROME2",
      "PixelBandwidth": 1717.0,
      "PixelRepresentation": 0,
      "PixelSpacing": [2.0, 2.0],
      "ProtocolName": "mbep2d_bold_mb2_p3_AP 2iso",
      "RepetitionTime": 1000.0,
      "Rows": 728,
      "SAR": 0.0,
      "SamplesPerPixel": 1,
      "ScanOptions": [
        "PFP",
        "FS"
],
      "ScanningSequence": "EP",
      "SequenceName": "epfid2d1_104",
      "SequenceVariant": [
        "SK",
        "SS"
],
      "SeriesDescription": "mbep2d_bold_mb2_p3_AP 2iso",
      "SeriesNumber": 30,
      "SeriesTime": "133607.375000",
      "SliceLocation": -14.916468577237,
      "SliceThickness": 2.0,
      "SmallestImagePixelValue": 0,
      "SoftwareVersions": "syngo MR B17",
      "SpacingBetweenSlices": 2.0000000104656,
      "SpecificCharacterSet": "ISO_IR 100",
      "StudyID": "1",
      "StudyTime": "122510.031000",
      "TransmitCoilName": "CFMM_8Tx32Rx",
      "VariableFlipAngleFlag": "N",
      "WindowCenterWidthExplanation": "Algo1",
      "dBdt": 0.0},
    "slices": {}
  },
  "time": {
    "samples": {
      "AcquisitionNumber": [1, 2, 3, 4, 5, 6, 7, 8, 9, 10, 11, 12, 13, 14, 15, 16, 17, 18, 19, 20, 21, 22, 23, 24, 25, 26, 27, 28, 29, 30, 31, 32, 33, 34, 35, 36, 37, 38, 39, 40, 41, 42, 43, 44, 45, 46, 47, 48, 49, 50, 51, 52, 53, 54, 55, 56, 57, 58, 59, 60, 61, 62, 63, 64, 65, 66, 67, 68, 69, 70, 71, 72, 73, 74, 75, 76, 77, 78, 79, 80, 81, 82, 83, 84, 85, 86, 87, 88, 89, 90, 91, 92, 93, 94, 95, 96, 97, 98, 99, 100, 101, 102, 103, 104, 105, 106, 107, 108, 109, 110, 111, 112, 113, 114, 115, 116, 117, 118, 119, 120, 121, 122, 123, 124, 125, 126, 127, 128, 129, 130, 131, 132, 133, 134, 135, 136, 137, 138, 139, 140, 141, 142, 143, 144, 145, 146, 147, 148, 149, 150, 151, 152, 153, 154, 155, 156, 157, 158, 159, 160, 161, 162, 163, 164, 165, 166, 167, 168, 169, 170, 171, 172, 173, 174, 175, 176, 177, 178, 179, 180, 181, 182, 183, 184, 185, 186, 187, 188, 189, 190, 191, 192, 193, 194, 195, 196, 197, 198, 199, 200, 201, 202, 203, 204, 205, 206, 207, 208, 209, 210, 211, 212, 213, 214, 215, 216, 217, 218, 219, 220, 221, 222, 223, 224, 225, 226, 227, 228, 229, 230, 231, 232, 233, 234, 235, 236, 237, 238, 239, 240, 241, 242, 243, 244, 245, 246, 247, 248, 249, 250, 251, 252, 253, 254, 255, 256, 257, 258, 259, 260, 261, 262, 263, 264, 265, 266, 267, 268, 269, 270, 271, 272, 273, 274, 275, 276, 277, 278, 279, 280, 281, 282, 283, 284, 285, 286, 287, 288, 289, 290, 291, 292, 293, 294, 295, 296, 297, 298, 299, 300, 301, 302, 303, 304, 305, 306, 307, 308, 309, 310, 311, 312, 313, 314, 315, 316, 317, 318, 319, 320, 321, 322, 323, 324, 325, 326, 327, 328, 329, 330],
      "AcquisitionTime": ["133543.740000", "133544.745000", "133545.747500", "133546.752500", "133547.757500", "133548.760000", "133549.765000", "133550.770000", "133551.772500", "133552.777500", "133553.780000", "133554.785000", "133555.790000", "133556.792500", "133557.797500", "133558.800000", "133559.805000", "133600.810000", "133601.812500", "133602.817500", "133603.820000", "133604.825000", "133605.830000", "133606.832500", "133607.837500", "133608.840000", "133609.845000", "133610.850000", "133611.852500", "133612.857500", "133613.860000", "133614.865000", "133615.870000", "133616.872500", "133617.877500", "133618.880000", "133619.885000", "133620.890000", "133621.892500", "133622.897500", "133623.902500", "133624.905000", "133625.910000", "133626.912500", "133627.917500", "133628.922500", "133629.925000", "133630.930000", "133631.932500", "133632.937500", "133633.942500", "133634.945000", "133635.950000", "133636.952500", "133637.957500", "133638.962500", "133639.965000", "133640.970000", "133641.972500", "133642.977500", "133643.982500", "133644.985000", "133645.990000", "133646.992500", "133647.997500", "133649.002500", "133650.005000", "133651.010000", "133652.012500", "133653.017500", "133654.022500", "133655.025000", "133656.030000", "133657.035000", "133658.037500", "133659.042500", "133700.045000", "133701.050000", "133702.055000", "133703.057500", "133704.062500", "133705.065000", "133706.070000", "133707.075000", "133708.077500", "133709.082500", "133710.085000", "133711.090000", "133712.095000", "133713.097500", "133714.102500", "133715.105000", "133716.110000", "133717.115000", "133718.117500", "133719.122500", "133720.125000", "133721.130000", "133722.135000", "133723.137500", "133724.142500", "133725.147500", "133726.150000", "133727.155000", "133728.157500", "133729.162500", "133730.167500", "133731.170000", "133732.175000", "133733.177500", "133734.182500", "133735.187500", "133736.190000", "133737.195000", "133738.197500", "133739.202500", "133740.207500", "133741.210000", "133742.215000", "133743.217500", "133744.222500", "133745.227500", "133746.230000", "133747.235000", "133748.237500", "133749.242500", "133750.247500", "133751.250000", "133752.255000", "133753.257500", "133754.262500", "133755.267500", "133756.270000", "133757.275000", "133758.280000", "133759.282500", "133800.287500", "133801.290000", "133802.295000", "133803.300000", "133804.302500", "133805.307500", "133806.310000", "133807.315000", "133808.320000", "133809.322500", "133810.327500", "133811.330000", "133812.335000", "133813.340000", "133814.342500", "133815.347500", "133816.350000", "133817.355000", "133818.360000", "133819.362500", "133820.367500", "133821.370000", "133822.375000", "133823.380000", "133824.382500", "133825.387500", "133826.390000", "133827.395000", "133828.400000", "133829.402500", "133830.407500", "133831.412500", "133832.415000", "133833.420000", "133834.422500", "133835.427500", "133836.432500", "133837.435000", "133838.440000", "133839.442500", "133840.447500", "133841.452500", "133842.455000", "133843.460000", "133844.462500", "133845.467500", "133846.472500", "133847.475000", "133848.480000", "133849.482500", "133850.487500", "133851.492500", "133852.495000", "133853.500000", "133854.502500", "133855.507500", "133856.512500", "133857.515000", "133858.520000", "133859.525000", "133900.527500", "133901.532500", "133902.535000", "133903.540000", "133904.545000", "133905.547500", "133906.552500", "133907.555000", "133908.560000", "133909.565000", "133910.567500", "133911.572500", "133912.575000", "133913.580000", "133914.585000", "133915.587500", "133916.592500", "133917.595000", "133918.600000", "133919.605000", "133920.607500", "133921.612500", "133922.615000", "133923.620000", "133924.625000", "133925.627500", "133926.632500", "133927.635000", "133928.640000", "133929.645000", "133930.647500", "133931.652500", "133932.657500", "133933.660000", "133934.665000", "133935.667500", "133936.672500", "133937.677500", "133938.680000", "133939.685000", "133940.687500", "133941.692500", "133942.697500", "133943.700000", "133944.705000", "133945.707500", "133946.712500", "133947.717500", "133948.720000", "133949.725000", "133950.727500", "133951.732500", "133952.737500", "133953.740000", "133954.745000", "133955.747500", "133956.752500", "133957.757500", "133958.760000", "133959.765000", "134000.770000", "134001.772500", "134002.777500", "134003.780000", "134004.785000", "134005.790000", "134006.792500", "134007.797500", "134008.800000", "134009.805000", "134010.810000", "134011.812500", "134012.817500", "134013.820000", "134014.825000", "134015.830000", "134016.832500", "134017.837500", "134018.840000", "134019.845000", "134020.850000", "134021.852500", "134022.857500", "134023.860000", "134024.865000", "134025.870000", "134026.872500", "134027.877500", "134028.880000", "134029.885000", "134030.890000", "134031.892500", "134032.897500", "134033.902500", "134034.905000", "134035.910000", "134036.912500", "134037.917500", "134038.922500", "134039.925000", "134040.930000", "134041.932500", "134042.937500", "134043.942500", "134044.945000", "134045.950000", "134046.952500", "134047.957500", "134048.962500", "134049.965000", "134050.970000", "134051.972500", "134052.977500", "134053.982500", "134054.985000", "134055.990000", "134056.992500", "134057.997500", "134059.002500", "134100.005000", "134101.010000", "134102.012500", "134103.017500", "134104.022500", "134105.025000", "134106.030000", "134107.035000", "134108.037500", "134109.042500", "134110.045000", "134111.050000", "134112.055000", "134113.057500", "134114.062500"],
      "ContentTime": ["133607.375000", "133607.375000", "133607.375000", "133607.375000", "133607.375000", "133607.390000", "133607.390000", "133607.390000", "133607.390000", "133607.390000", "133607.390000", "133607.390000", "133607.406000", "133607.406000", "133607.406000", "133607.406000", "133607.406000", "133607.406000", "133607.406000", "133607.421000", "133607.421000", "133607.421000", "133627.328000", "133627.343000", "133627.343000", "133627.343000", "133627.343000", "133627.343000", "133627.343000", "133627.343000", "133627.359000", "133627.359000", "133627.359000", "133627.359000", "133627.359000", "133627.359000", "133627.375000", "133627.375000", "133627.375000", "133627.375000", "133627.375000", "133627.375000", "133647.328000", "133647.343000", "133647.343000", "133647.343000", "133647.343000", "133647.343000", "133647.343000", "133647.343000", "133647.359000", "133647.359000", "133647.359000", "133647.359000", "133647.359000", "133647.359000", "133647.359000", "133647.375000", "133647.375000", "133647.375000", "133647.375000", "133647.375000", "133707.328000", "133707.343000", "133707.343000", "133707.343000", "133707.343000", "133707.359000", "133707.359000", "133707.359000", "133707.359000", "133707.359000", "133707.359000", "133707.359000", "133707.359000", "133707.375000", "133707.375000", "133707.375000", "133707.375000", "133707.375000", "133707.375000", "133707.375000", "133727.328000", "133727.343000", "133727.343000", "133727.343000", "133727.343000", "133727.359000", "133727.359000", "133727.359000", "133727.359000", "133727.359000", "133727.359000", "133727.359000", "133727.375000", "133727.375000", "133727.375000", "133727.375000", "133727.375000", "133727.375000", "133727.375000", "133727.375000", "133747.328000", "133747.343000", "133747.343000", "133747.343000", "133747.343000", "133747.343000", "133747.343000", "133747.343000", "133747.359000", "133747.359000", "133747.359000", "133747.359000", "133747.359000", "133747.375000", "133747.375000", "133747.375000", "133747.375000", "133747.375000", "133747.375000", "133747.375000", "133807.328000", "133807.343000", "133807.343000", "133807.343000", "133807.343000", "133807.343000", "133807.359000", "133807.359000", "133807.359000", "133807.359000", "133807.359000", "133807.359000", "133807.375000", "133807.375000", "133807.375000", "133807.375000", "133807.375000", "133807.375000", "133807.375000", "133807.390000", "133827.328000", "133827.343000", "133827.343000", "133827.343000", "133827.343000", "133827.343000", "133827.343000", "133827.343000", "133827.359000", "133827.359000", "133827.359000", "133827.359000", "133827.359000", "133827.359000", "133827.359000", "133827.375000", "133827.375000", "133827.375000", "133827.375000", "133827.375000", "133847.343000", "133847.343000", "133847.343000", "133847.343000", "133847.343000", "133847.343000", "133847.343000", "133847.359000", "133847.359000", "133847.359000", "133847.359000", "133847.359000", "133847.359000", "133847.359000", "133847.359000", "133847.375000", "133847.375000", "133847.375000", "133847.375000", "133847.375000", "133907.328000", "133907.343000", "133907.343000", "133907.343000", "133907.343000", "133907.343000", "133907.359000", "133907.359000", "133907.359000", "133907.359000", "133907.359000", "133907.359000", "133907.359000", "133907.375000", "133907.375000", "133907.375000", "133907.375000", "133907.375000", "133907.375000", "133907.375000", "133927.328000", "133927.343000", "133927.343000", "133927.343000", "133927.359000", "133927.359000", "133927.359000", "133927.359000", "133927.359000", "133927.359000", "133927.375000", "133927.375000", "133927.375000", "133927.375000", "133927.375000", "133927.375000", "133927.375000", "133927.390000", "133927.390000", "133927.390000", "133947.328000", "133947.359000", "133947.359000", "133947.359000", "133947.359000", "133947.359000", "133947.359000", "133947.359000", "133947.359000", "133947.375000", "133947.375000", "133947.375000", "133947.375000", "133947.390000", "133947.390000", "133947.390000", "133947.390000", "133947.390000", "133947.390000", "133947.390000", "134007.328000", "134007.343000", "134007.343000", "134007.343000", "134007.343000", "134007.343000", "134007.343000", "134007.343000", "134007.359000", "134007.359000", "134007.359000", "134007.359000", "134007.359000", "134007.359000", "134007.359000", "134007.375000", "134007.375000", "134007.375000", "134007.375000", "134007.375000", "134027.328000", "134027.343000", "134027.343000", "134027.343000", "134027.343000", "134027.343000", "134027.343000", "134027.359000", "134027.359000", "134027.359000", "134027.359000", "134027.359000", "134027.359000", "134027.359000", "134027.375000", "134027.375000", "134027.375000", "134027.375000", "134027.375000", "134027.375000", "134047.328000", "134047.343000", "134047.343000", "134047.343000", "134047.343000", "134047.343000", "134047.343000", "134047.343000", "134047.359000", "134047.359000", "134047.359000", "134047.359000", "134047.359000", "134047.359000", "134047.375000", "134047.375000", "134047.375000", "134047.375000", "134047.375000", "134047.375000", "134107.328000", "134107.343000", "134107.343000", "134107.343000", "134107.343000", "134107.359000", "134107.359000", "134107.359000", "134107.359000", "134107.359000", "134107.359000", "134107.359000", "134107.375000", "134107.375000", "134107.375000", "134107.375000", "134107.375000", "134107.390000", "134107.390000", "134107.390000", "134119.796000", "134119.796000", "134119.796000", "134119.812000", "134119.812000", "134119.812000", "134119.812000", "134119.812000"],
      "InstanceCreationTime": ["133607.375000", "133607.375000", "133607.375000", "133607.375000", "133607.375000", "133607.390000", "133607.390000", "133607.390000", "133607.390000", "133607.390000", "133607.390000", "133607.390000", "133607.406000", "133607.406000", "133607.406000", "133607.406000", "133607.406000", "133607.406000", "133607.406000", "133607.421000", "133607.421000", "133607.421000", "133627.328000", "133627.343000", "133627.343000", "133627.343000", "133627.343000", "133627.343000", "133627.343000", "133627.343000", "133627.359000", "133627.359000", "133627.359000", "133627.359000", "133627.359000", "133627.359000", "133627.375000", "133627.375000", "133627.375000", "133627.375000", "133627.375000", "133627.375000", "133647.328000", "133647.343000", "133647.343000", "133647.343000", "133647.343000", "133647.343000", "133647.343000", "133647.343000", "133647.359000", "133647.359000", "133647.359000", "133647.359000", "133647.359000", "133647.359000", "133647.359000", "133647.375000", "133647.375000", "133647.375000", "133647.375000", "133647.375000", "133707.328000", "133707.343000", "133707.343000", "133707.343000", "133707.343000", "133707.359000", "133707.359000", "133707.359000", "133707.359000", "133707.359000", "133707.359000", "133707.359000", "133707.359000", "133707.375000", "133707.375000", "133707.375000", "133707.375000", "133707.375000", "133707.375000", "133707.375000", "133727.328000", "133727.343000", "133727.343000", "133727.343000", "133727.343000", "133727.359000", "133727.359000", "133727.359000", "133727.359000", "133727.359000", "133727.359000", "133727.359000", "133727.375000", "133727.375000", "133727.375000", "133727.375000", "133727.375000", "133727.375000", "133727.375000", "133727.375000", "133747.328000", "133747.343000", "133747.343000", "133747.343000", "133747.343000", "133747.343000", "133747.343000", "133747.343000", "133747.359000", "133747.359000", "133747.359000", "133747.359000", "133747.359000", "133747.375000", "133747.375000", "133747.375000", "133747.375000", "133747.375000", "133747.375000", "133747.375000", "133807.328000", "133807.343000", "133807.343000", "133807.343000", "133807.343000", "133807.343000", "133807.359000", "133807.359000", "133807.359000", "133807.359000", "133807.359000", "133807.359000", "133807.375000", "133807.375000", "133807.375000", "133807.375000", "133807.375000", "133807.375000", "133807.375000", "133807.390000", "133827.328000", "133827.343000", "133827.343000", "133827.343000", "133827.343000", "133827.343000", "133827.343000", "133827.343000", "133827.359000", "133827.359000", "133827.359000", "133827.359000", "133827.359000", "133827.359000", "133827.359000", "133827.375000", "133827.375000", "133827.375000", "133827.375000", "133827.375000", "133847.343000", "133847.343000", "133847.343000", "133847.343000", "133847.343000", "133847.343000", "133847.343000", "133847.359000", "133847.359000", "133847.359000", "133847.359000", "133847.359000", "133847.359000", "133847.359000", "133847.359000", "133847.375000", "133847.375000", "133847.375000", "133847.375000", "133847.375000", "133907.328000", "133907.343000", "133907.343000", "133907.343000", "133907.343000", "133907.343000", "133907.359000", "133907.359000", "133907.359000", "133907.359000", "133907.359000", "133907.359000", "133907.359000", "133907.375000", "133907.375000", "133907.375000", "133907.375000", "133907.375000", "133907.375000", "133907.375000", "133927.328000", "133927.343000", "133927.343000", "133927.343000", "133927.359000", "133927.359000", "133927.359000", "133927.359000", "133927.359000", "133927.359000", "133927.375000", "133927.375000", "133927.375000", "133927.375000", "133927.375000", "133927.375000", "133927.375000", "133927.390000", "133927.390000", "133927.390000", "133947.328000", "133947.359000", "133947.359000", "133947.359000", "133947.359000", "133947.359000", "133947.359000", "133947.359000", "133947.359000", "133947.375000", "133947.375000", "133947.375000", "133947.375000", "133947.390000", "133947.390000", "133947.390000", "133947.390000", "133947.390000", "133947.390000", "133947.390000", "134007.328000", "134007.343000", "134007.343000", "134007.343000", "134007.343000", "134007.343000", "134007.343000", "134007.343000", "134007.359000", "134007.359000", "134007.359000", "134007.359000", "134007.359000", "134007.359000", "134007.359000", "134007.375000", "134007.375000", "134007.375000", "134007.375000", "134007.375000", "134027.328000", "134027.343000", "134027.343000", "134027.343000", "134027.343000", "134027.343000", "134027.343000", "134027.359000", "134027.359000", "134027.359000", "134027.359000", "134027.359000", "134027.359000", "134027.359000", "134027.375000", "134027.375000", "134027.375000", "134027.375000", "134027.375000", "134027.375000", "134047.328000", "134047.343000", "134047.343000", "134047.343000", "134047.343000", "134047.343000", "134047.343000", "134047.343000", "134047.359000", "134047.359000", "134047.359000", "134047.359000", "134047.359000", "134047.359000", "134047.375000", "134047.375000", "134047.375000", "134047.375000", "134047.375000", "134047.375000", "134107.328000", "134107.343000", "134107.343000", "134107.343000", "134107.343000", "134107.359000", "134107.359000", "134107.359000", "134107.359000", "134107.359000", "134107.359000", "134107.359000", "134107.375000", "134107.375000", "134107.375000", "134107.375000", "134107.375000", "134107.390000", "134107.390000", "134107.390000", "134119.796000", "134119.796000", "134119.796000", "134119.812000", "134119.812000", "134119.812000", "134119.812000", "134119.812000"],
      "InstanceNumber": [1, 2, 3, 4, 5, 6, 7, 8, 9, 10, 11, 12, 13, 14, 15, 16, 17, 18, 19, 20, 21, 22, 23, 24, 25, 26, 27, 28, 29, 30, 31, 32, 33, 34, 35, 36, 37, 38, 39, 40, 41, 42, 43, 44, 45, 46, 47, 48, 49, 50, 51, 52, 53, 54, 55, 56, 57, 58, 59, 60, 61, 62, 63, 64, 65, 66, 67, 68, 69, 70, 71, 72, 73, 74, 75, 76, 77, 78, 79, 80, 81, 82, 83, 84, 85, 86, 87, 88, 89, 90, 91, 92, 93, 94, 95, 96, 97, 98, 99, 100, 101, 102, 103, 104, 105, 106, 107, 108, 109, 110, 111, 112, 113, 114, 115, 116, 117, 118, 119, 120, 121, 122, 123, 124, 125, 126, 127, 128, 129, 130, 131, 132, 133, 134, 135, 136, 137, 138, 139, 140, 141, 142, 143, 144, 145, 146, 147, 148, 149, 150, 151, 152, 153, 154, 155, 156, 157, 158, 159, 160, 161, 162, 163, 164, 165, 166, 167, 168, 169, 170, 171, 172, 173, 174, 175, 176, 177, 178, 179, 180, 181, 182, 183, 184, 185, 186, 187, 188, 189, 190, 191, 192, 193, 194, 195, 196, 197, 198, 199, 200, 201, 202, 203, 204, 205, 206, 207, 208, 209, 210, 211, 212, 213, 214, 215, 216, 217, 218, 219, 220, 221, 222, 223, 224, 225, 226, 227, 228, 229, 230, 231, 232, 233, 234, 235, 236, 237, 238, 239, 240, 241, 242, 243, 244, 245, 246, 247, 248, 249, 250, 251, 252, 253, 254, 255, 256, 257, 258, 259, 260, 261, 262, 263, 264, 265, 266, 267, 268, 269, 270, 271, 272, 273, 274, 275, 276, 277, 278, 279, 280, 281, 282, 283, 284, 285, 286, 287, 288, 289, 290, 291, 292, 293, 294, 295, 296, 297, 298, 299, 300, 301, 302, 303, 304, 305, 306, 307, 308, 309, 310, 311, 312, 313, 314, 315, 316, 317, 318, 319, 320, 321, 322, 323, 324, 325, 326, 327, 328, 329, 330],
      "LargestImagePixelValue": [2726, 2762, 2669, 2738, 2679, 2723, 2701, 2684, 2707, 2686, 2737, 2742, 2687, 2703, 2686, 2720, 2711, 2733, 2704, 2713, 2719, 2712, 2672, 2717, 2655, 2695, 2724, 2689, 2678, 2687, 2721, 2717, 2690, 2704, 2693, 2649, 2722, 2721, 2689, 2663, 2699, 2682, 2685, 2645, 2716, 2768, 2712, 2693, 2639, 2676, 2755, 2704, 2676, 2740, 2672, 2665, 2703, 2670, 2657, 2662, 2685, 2718, 2674, 2702, 2701, 2713, 2709, 2731, 2729, 2700, 2730, 2697, 2701, 2683, 2768, 2709, 2717, 2771, 2708, 2706, 2742, 2734, 2712, 2745, 2715, 2737, 2721, 2759, 2679, 2743, 2753, 2707, 2690, 2733, 2723, 2721, 2708, 2745, 2675, 2678, 2745, 2724, 2690, 2685, 2699, 2704, 2724, 2703, 2709, 2731, 2710, 2724, 2716, 2678, 2666, 2696, 2725, 2700, 2679, 2781, 2706, 2711, 2774, 2732, 2752, 2687, 2788, 2709, 2683, 2733, 2755, 2690, 2714, 2742, 2743, 2699, 2711, 2716, 2744, 2700, 2694, 2705, 2729, 2662, 2746, 2793, 2720, 2712, 2702, 2748, 2727, 2715, 2700, 2741, 2725, 2702, 2727, 2728, 2696, 2682, 2768, 2743, 2710, 2756, 2695, 2695, 2791, 2731, 2710, 2745, 2716, 2688, 2735, 2695, 2690, 2731, 2747, 2708, 2659, 2756, 2752, 2734, 2773, 2690, 2662, 2771, 2714, 2672, 2746, 2712, 2748, 2767, 2727, 2764, 2752, 2675, 2739, 2708, 2698, 2725, 2712, 2717, 2709, 2740, 2704, 2741, 2693, 2726, 2695, 2712, 2714, 2728, 2768, 2747, 2691, 2756, 2727, 2690, 2723, 2772, 2731, 2716, 2776, 2703, 2720, 2760, 2712, 2734, 2767, 2727, 2698, 2768, 2755, 2711, 2757, 2733, 2734, 2684, 2755, 2699, 2736, 2758, 2702, 2679, 2706, 2822, 2782, 2695, 2725, 2681, 2709, 2754, 2699, 2706, 2776, 2703, 2753, 2702, 2746, 2715, 2708, 2749, 2733, 2730, 2735, 2764, 2722, 2732, 2715, 2712, 2727, 2724, 2705, 2733, 2705, 2705, 2736, 2702, 2707, 2734, 2763, 2704, 2692, 2735, 2707, 2735, 2748, 2725, 2743, 2677, 2730, 2725, 2749, 2699, 2715, 2700, 2734, 2699, 2710, 2723, 2732, 2722, 2782, 2686, 2690, 2746, 2708, 2743, 2705, 2729, 2710, 2712, 2718, 2713, 2699, 2702, 2734, 2731, 2646, 2694, 2698, 2748, 2692, 2750, 2722, 2760, 2726, 2752, 2772, 2750],
      "WindowCenter": [440.0, 441.0, 440.0, 440.0, 439.0, 439.0, 440.0, 439.0, 439.0, 439.0, 439.0, 439.0, 439.0, 440.0, 441.0, 441.0, 442.0, 442.0, 441.0, 441.0, 440.0, 441.0, 441.0, 441.0, 440.0, 441.0, 441.0, 441.0, 441.0, 441.0, 440.0, 440.0, 439.0, 440.0, 440.0, 440.0, 440.0, 440.0, 440.0, 441.0, 441.0, 439.0, 439.0, 438.0, 438.0, 439.0, 440.0, 441.0, 441.0, 440.0, 440.0, 439.0, 439.0, 439.0, 439.0, 438.0, 438.0, 438.0, 437.0, 438.0, 439.0, 439.0, 439.0, 440.0, 440.0, 440.0, 439.0, 439.0, 439.0, 439.0, 439.0, 439.0, 439.0, 440.0, 441.0, 440.0, 440.0, 441.0, 440.0, 441.0, 441.0, 441.0, 441.0, 442.0, 441.0, 442.0, 442.0, 441.0, 440.0, 441.0, 440.0, 440.0, 440.0, 441.0, 440.0, 441.0, 440.0, 440.0, 439.0, 439.0, 440.0, 439.0, 439.0, 440.0, 440.0, 441.0, 442.0, 442.0, 441.0, 441.0, 440.0, 439.0, 439.0, 439.0, 439.0, 439.0, 439.0, 439.0, 439.0, 440.0, 439.0, 440.0, 440.0, 441.0, 442.0, 443.0, 443.0, 441.0, 440.0, 440.0, 439.0, 438.0, 439.0, 440.0, 441.0, 442.0, 443.0, 442.0, 442.0, 441.0, 440.0, 441.0, 440.0, 440.0, 441.0, 441.0, 441.0, 441.0, 441.0, 442.0, 441.0, 441.0, 440.0, 441.0, 441.0, 441.0, 441.0, 441.0, 441.0, 440.0, 441.0, 441.0, 442.0, 442.0, 443.0, 443.0, 443.0, 442.0, 441.0, 441.0, 441.0, 441.0, 441.0, 441.0, 441.0, 441.0, 441.0, 440.0, 439.0, 439.0, 439.0, 439.0, 440.0, 439.0, 441.0, 441.0, 442.0, 441.0, 441.0, 442.0, 442.0, 443.0, 443.0, 443.0, 443.0, 443.0, 443.0, 443.0, 443.0, 442.0, 442.0, 442.0, 441.0, 442.0, 442.0, 441.0, 442.0, 442.0, 443.0, 442.0, 442.0, 443.0, 442.0, 442.0, 442.0, 443.0, 443.0, 442.0, 442.0, 441.0, 441.0, 441.0, 441.0, 441.0, 441.0, 441.0, 441.0, 441.0, 441.0, 440.0, 440.0, 441.0, 441.0, 441.0, 441.0, 441.0, 441.0, 440.0, 440.0, 439.0, 440.0, 441.0, 441.0, 441.0, 441.0, 442.0, 442.0, 442.0, 442.0, 442.0, 444.0, 444.0, 444.0, 442.0, 442.0, 440.0, 441.0, 440.0, 440.0, 441.0, 442.0, 443.0, 443.0, 443.0, 443.0, 441.0, 441.0, 441.0, 441.0, 441.0, 441.0, 441.0, 440.0, 441.0, 440.0, 440.0, 440.0, 439.0, 440.0, 441.0, 442.0, 441.0, 441.0, 441.0, 441.0, 441.0, 440.0, 440.0, 440.0, 441.0, 442.0, 442.0, 441.0, 441.0, 440.0, 440.0, 440.0, 440.0, 441.0, 441.0, 442.0, 443.0, 443.0, 442.0, 441.0, 440.0, 439.0, 439.0, 438.0, 439.0, 440.0, 441.0, 441.0, 441.0, 440.0, 439.0, 439.0, 438.0, 438.0, 439.0, 439.0, 440.0, 440.0, 440.0, 440.0, 440.0, 440.0, 440.0, 439.0, 439.0],
