{
  "AcquisitionMatrixPE": 104,
  "AcquisitionNumber": 1,
  "AcquisitionTime": "10:14:4.990000",
  "BandwidthPerPixelPhaseEncode": 43.054,
  "BaseResolution": 104,
  "CoilString": "C:E1_2",
  "ConversionSoftware": "dcm2niix",
  "ConversionSoftwareVersion": "v1.0.20191031",
  "DerivedVendorReportedEchoSpacing": 0.000669999,
  "DeviceSerialNumber": "18932",
  "DwellTime": 2.8e-06,
  "EchoTime": 0.02,
  "EffectiveEchoSpacing": 0.000223333,
  "FlipAngle": 30,
  "ImageComments": "Unaliased_MB2_PE2",
  "ImageOrientationPatientDICOM": [1, -1e-16, 0, 1e-16, 0.979925, -0.199368],
  "ImageType": [
    "ORIGINAL",
    "PRIMARY",
    "M",
    "MB",
    "ND",
    "MOSAIC"
],
  "ImagingFrequency": 297.229,
  "InPlanePhaseEncodingDirectionDICOM": "COL",
  "InstitutionAddress": "Richmond_Street_North_1151_London_409EF2_Ontario_CA_N6A_5B7",
  "InstitutionName": "Robarts_Reserch_Institute",
  "InstitutionalDepartmentName": "Department",
  "MRAcquisitionType": "2D",
  "MagneticFieldStrength": 6.98,
  "Manufacturer": "Siemens",
  "ManufacturersModelName": "Investigational_Device_7T",
  "Modality": "MR",
  "MultibandAccelerationFactor": 2,
  "ParallelReductionFactorInPlane": 3,
  "PartialFourier": 0.875,
  "PatientPosition": "HFS",
  "PercentPhaseFOV": 100,
  "PhaseEncodingDirection": "j-",
  "PhaseEncodingSteps": 91,
  "PhaseResolution": 1,
  "PixelBandwidth": 1717,
  "ProcedureStepDescription": "Diedrichsen_SeqRep4",
  "ProtocolName": "mbep2d_bold_mb2_p3_AP_2iso",
  "PulseSequenceDetails": "%CustomerSeq%_cmrr_mbep2d_bold",
  "ReceiveCoilName": "CFMM_8Tx32Rx",
  "ReconMatrixPE": 104,
  "RefLinesPE": 36,
  "RepetitionTime": 1,
  "ScanOptions": "PFP_FS",
  "ScanningSequence": "EP",
  "SequenceName": "epfid2d1_104",
  "SequenceVariant": "SK_SS",
  "SeriesDescription": "mbep2d_bold_mb2_p3_AP_2iso",
  "SeriesNumber": 34,
  "ShimSetting": [5, 2115, 64, 1356, 38, -3, 144, -167],
  "SliceThickness": 2,
  "SliceTiming": [0, 0.2275, 0.455, 0.6825, 0.9125, 0.135, 0.365, 0.5925, 0.82, 0.045, 0.2725, 0.5, 0.73, 0.9575, 0.1825, 0.41, 0.6375, 0.865, 0.09, 0.3175, 0.5475, 0.775, 0, 0.2275, 0.455, 0.6825, 0.9125, 0.135, 0.365, 0.5925, 0.82, 0.045, 0.2725, 0.5, 0.73, 0.9575, 0.1825, 0.41, 0.6375, 0.865, 0.09, 0.3175, 0.5475, 0.775],
  "SoftwareVersions": "syngo_MR_B17",
  "SpacingBetweenSlices": 2,
  "StationName": "MASTER",
  "TaskName": "dsp",
  "TotalReadoutTime": 0.0230033,
  "TxRefAmp": 120,
  "dcmmeta_affine": [
    [-2.0, 2.000000033724767e-16, -3.987358960979601e-17, 105.4527816772461],
    [2.000000033724767e-16, 1.9598493576049805, -0.3987358808517456, -107.36229705810547],
    [0.0, 0.3987358808517456, 1.9598493576049805, -42.90914535522461],
    [0.0, 0.0, 0.0, 1.0]
],
  "dcmmeta_reorient_transform": [
    [0.0, -1.0, 0.0, 103.0],
    [1.0, 0.0, 0.0, 0.0],
    [0.0, 0.0, 1.0, 0.0],
    [0.0, 0.0, 0.0, 1.0]
],
  "dcmmeta_shape": [104, 104, 44, 330],
  "dcmmeta_slice_dim": 2,
  "dcmmeta_version": 0.6,
  "global": {
    "const": {
      "AcquisitionMatrix": [104, 0, 0, 104],
      "AngioFlag": "N",
      "BitsAllocated": 16,
      "BitsStored": 12,
      "Columns": 728,
      "EchoNumbers": 1,
      "EchoTime": 20.0,
      "EchoTrainLength": 1,
      "FlipAngle": 30.0,
      "HighBit": 11,
      "ImageOrientationPatient": [1.0, -1e-16, 0.0, 1e-16, 0.97992470268924, -0.1993679439113],
      "ImagePositionPatient": [-729.45278453827, -705.97520707538, 122.56624713957],
      "ImageType": [
        "ORIGINAL",
        "PRIMARY",
        "M",
        "MB",
        "ND",
        "MOSAIC"
],
      "ImagedNucleus": "1H",
      "ImagingFrequency": 297.228788,
      "InPlanePhaseEncodingDirection": "COL",
      "MRAcquisitionType": "2D",
      "MagneticFieldStrength": 6.98,
      "Manufacturer": "SIEMENS",
      "ManufacturerModelName": "Investigational_Device_7T",
      "Modality": "MR",
      "NumberOfAverages": 1.0,
      "NumberOfPhaseEncodingSteps": 91,
      "PercentPhaseFieldOfView": 100.0,
      "PercentSampling": 100.0,
      "PerformedProcedureStepStartTime": "084204.984000",
      "PhotometricInterpretation": "MONOCHROME2",
      "PixelBandwidth": 1717.0,
      "PixelRepresentation": 0,
      "PixelSpacing": [2.0, 2.0],
      "ProtocolName": "mbep2d_bold_mb2_p3_AP 2iso",
      "RepetitionTime": 1000.0,
      "Rows": 728,
      "SAR": 0.0,
      "SamplesPerPixel": 1,
      "ScanOptions": [
        "PFP",
        "FS"
],
      "ScanningSequence": "EP",
      "SequenceName": "epfid2d1_104",
      "SequenceVariant": [
        "SK",
        "SS"
],
      "SeriesDescription": "mbep2d_bold_mb2_p3_AP 2iso",
      "SeriesNumber": 34,
      "SeriesTime": "101434.531000",
      "SliceLocation": -20.643132198969,
      "SliceThickness": 2.0,
      "SmallestImagePixelValue": 0,
      "SoftwareVersions": "syngo MR B17",
      "SpacingBetweenSlices": 2.0000000120211,
      "SpecificCharacterSet": "ISO_IR 100",
      "StudyID": "1",
      "StudyTime": "084204.531000",
      "TransmitCoilName": "CFMM_8Tx32Rx",
      "VariableFlipAngleFlag": "N",
      "WindowCenterWidthExplanation": "Algo1",
      "dBdt": 0.0},
    "slices": {}
  },
  "time": {
    "samples": {
      "AcquisitionNumber": [1, 2, 3, 4, 5, 6, 7, 8, 9, 10, 11, 12, 13, 14, 15, 16, 17, 18, 19, 20, 21, 22, 23, 24, 25, 26, 27, 28, 29, 30, 31, 32, 33, 34, 35, 36, 37, 38, 39, 40, 41, 42, 43, 44, 45, 46, 47, 48, 49, 50, 51, 52, 53, 54, 55, 56, 57, 58, 59, 60, 61, 62, 63, 64, 65, 66, 67, 68, 69, 70, 71, 72, 73, 74, 75, 76, 77, 78, 79, 80, 81, 82, 83, 84, 85, 86, 87, 88, 89, 90, 91, 92, 93, 94, 95, 96, 97, 98, 99, 100, 101, 102, 103, 104, 105, 106, 107, 108, 109, 110, 111, 112, 113, 114, 115, 116, 117, 118, 119, 120, 121, 122, 123, 124, 125, 126, 127, 128, 129, 130, 131, 132, 133, 134, 135, 136, 137, 138, 139, 140, 141, 142, 143, 144, 145, 146, 147, 148, 149, 150, 151, 152, 153, 154, 155, 156, 157, 158, 159, 160, 161, 162, 163, 164, 165, 166, 167, 168, 169, 170, 171, 172, 173, 174, 175, 176, 177, 178, 179, 180, 181, 182, 183, 184, 185, 186, 187, 188, 189, 190, 191, 192, 193, 194, 195, 196, 197, 198, 199, 200, 201, 202, 203, 204, 205, 206, 207, 208, 209, 210, 211, 212, 213, 214, 215, 216, 217, 218, 219, 220, 221, 222, 223, 224, 225, 226, 227, 228, 229, 230, 231, 232, 233, 234, 235, 236, 237, 238, 239, 240, 241, 242, 243, 244, 245, 246, 247, 248, 249, 250, 251, 252, 253, 254, 255, 256, 257, 258, 259, 260, 261, 262, 263, 264, 265, 266, 267, 268, 269, 270, 271, 272, 273, 274, 275, 276, 277, 278, 279, 280, 281, 282, 283, 284, 285, 286, 287, 288, 289, 290, 291, 292, 293, 294, 295, 296, 297, 298, 299, 300, 301, 302, 303, 304, 305, 306, 307, 308, 309, 310, 311, 312, 313, 314, 315, 316, 317, 318, 319, 320, 321, 322, 323, 324, 325, 326, 327, 328, 329, 330],
      "AcquisitionTime": ["101404.990000", "101405.992500", "101406.997500", "101408.000000", "101409.005000", "101410.010000", "101411.012500", "101412.017500", "101413.020000", "101414.025000", "101415.030000", "101416.032500", "101417.037500", "101418.042500", "101419.045000", "101420.050000", "101421.052500", "101422.057500", "101423.062500", "101424.065000", "101425.070000", "101426.072500", "101427.077500", "101428.082500", "101429.085000", "101430.090000", "101431.092500", "101432.097500", "101433.102500", "101434.105000", "101435.110000", "101436.112500", "101437.117500", "101438.122500", "101439.125000", "101440.130000", "101441.132500", "101442.137500", "101443.142500", "101444.145000", "101445.150000", "101446.152500", "101447.157500", "101448.162500", "101449.165000", "101450.170000", "101451.175000", "101452.177500", "101453.182500", "101454.185000", "101455.190000", "101456.195000", "101457.197500", "101458.202500", "101459.205000", "101500.210000", "101501.215000", "101502.217500", "101503.222500", "101504.225000", "101505.230000", "101506.235000", "101507.237500", "101508.242500", "101509.245000", "101510.250000", "101511.255000", "101512.257500", "101513.262500", "101514.265000", "101515.270000", "101516.275000", "101517.277500", "101518.282500", "101519.285000", "101520.290000", "101521.295000", "101522.297500", "101523.302500", "101524.307500", "101525.310000", "101526.315000", "101527.317500", "101528.322500", "101529.327500", "101530.330000", "101531.335000", "101532.337500", "101533.342500", "101534.347500", "101535.350000", "101536.355000", "101537.357500", "101538.362500", "101539.367500", "101540.370000", "101541.375000", "101542.377500", "101543.382500", "101544.387500", "101545.390000", "101546.395000", "101547.397500", "101548.402500", "101549.407500", "101550.410000", "101551.415000", "101552.420000", "101553.422500", "101554.427500", "101555.430000", "101556.435000", "101557.440000", "101558.442500", "101559.447500", "101600.450000", "101601.455000", "101602.460000", "101603.462500", "101604.467500", "101605.470000", "101606.475000", "101607.480000", "101608.482500", "101609.487500", "101610.490000", "101611.495000", "101612.500000", "101613.502500", "101614.507500", "101615.510000", "101616.515000", "101617.520000", "101618.522500", "101619.527500", "101620.530000", "101621.535000", "101622.540000", "101623.542500", "101624.547500", "101625.552500", "101626.555000", "101627.560000", "101628.562500", "101629.567500", "101630.572500", "101631.575000", "101632.580000", "101633.582500", "101634.587500", "101635.592500", "101636.595000", "101637.600000", "101638.602500", "101639.607500", "101640.612500", "101641.615000", "101642.620000", "101643.622500", "101644.627500", "101645.632500", "101646.635000", "101647.640000", "101648.642500", "101649.647500", "101650.652500", "101651.655000", "101652.660000", "101653.665000", "101654.667500", "101655.672500", "101656.675000", "101657.680000", "101658.685000", "101659.687500", "101700.692500", "101701.695000", "101702.700000", "101703.705000", "101704.707500", "101705.712500", "101706.715000", "101707.720000", "101708.725000", "101709.727500", "101710.732500", "101711.735000", "101712.740000", "101713.745000", "101714.747500", "101715.752500", "101716.755000", "101717.760000", "101718.765000", "101719.767500", "101720.772500", "101721.775000", "101722.780000", "101723.785000", "101724.787500", "101725.792500", "101726.797500", "101727.800000", "101728.805000", "101729.807500", "101730.812500", "101731.817500", "101732.820000", "101733.825000", "101734.827500", "101735.832500", "101736.837500", "101737.840000", "101738.845000", "101739.847500", "101740.852500", "101741.857500", "101742.860000", "101743.865000", "101744.867500", "101745.872500", "101746.877500", "101747.880000", "101748.885000", "101749.887500", "101750.892500", "101751.897500", "101752.900000", "101753.905000", "101754.907500", "101755.912500", "101756.917500", "101757.920000", "101758.925000", "101759.930000", "101800.932500", "101801.937500", "101802.940000", "101803.945000", "101804.950000", "101805.952500", "101806.957500", "101807.960000", "101808.965000", "101809.970000", "101810.972500", "101811.977500", "101812.980000", "101813.985000", "101814.990000", "101815.992500", "101816.997500", "101818.000000", "101819.005000", "101820.010000", "101821.012500", "101822.017500", "101823.020000", "101824.025000", "101825.030000", "101826.032500", "101827.037500", "101828.042500", "101829.045000", "101830.050000", "101831.052500", "101832.057500", "101833.062500", "101834.065000", "101835.070000", "101836.072500", "101837.077500", "101838.082500", "101839.085000", "101840.090000", "101841.092500", "101842.097500", "101843.102500", "101844.105000", "101845.110000", "101846.112500", "101847.117500", "101848.122500", "101849.125000", "101850.130000", "101851.132500", "101852.137500", "101853.142500", "101854.145000", "101855.150000", "101856.152500", "101857.157500", "101858.162500", "101859.165000", "101900.170000", "101901.175000", "101902.177500", "101903.182500", "101904.185000", "101905.190000", "101906.195000", "101907.197500", "101908.202500", "101909.205000", "101910.210000", "101911.215000", "101912.217500", "101913.222500", "101914.225000", "101915.230000", "101916.235000", "101917.237500", "101918.242500", "101919.245000", "101920.250000", "101921.255000", "101922.257500", "101923.262500", "101924.265000", "101925.270000", "101926.275000", "101927.277500", "101928.282500", "101929.285000", "101930.290000", "101931.295000", "101932.297500", "101933.302500", "101934.307500", "101935.310000"],
      "ContentTime": ["101434.531000", "101434.546000", "101434.546000", "101434.546000", "101434.546000", "101434.546000", "101434.562000", "101434.562000", "101434.562000", "101434.562000", "101434.562000", "101434.562000", "101434.562000", "101434.578000", "101434.578000", "101434.578000", "101434.578000", "101434.578000", "101434.578000", "101434.593000", "101434.593000", "101434.593000", "101434.593000", "101434.593000", "101434.593000", "101434.593000", "101434.609000", "101434.609000", "101454.500000", "101454.500000", "101454.500000", "101454.500000", "101454.515000", "101454.515000", "101454.515000", "101454.515000", "101454.515000", "101454.515000", "101454.515000", "101454.515000", "101454.531000", "101454.531000", "101454.531000", "101454.531000", "101454.531000", "101454.531000", "101454.531000", "101454.546000", "101514.500000", "101514.500000", "101514.500000", "101514.500000", "101514.515000", "101514.515000", "101514.515000", "101514.515000", "101514.531000", "101514.531000", "101514.531000", "101514.531000", "101514.531000", "101514.531000", "101514.546000", "101514.546000", "101514.546000", "101514.546000", "101514.546000", "101514.546000", "101534.500000", "101534.500000", "101534.500000", "101534.500000", "101534.515000", "101534.515000", "101534.515000", "101534.515000", "101534.515000", "101534.515000", "101534.515000", "101534.515000", "101534.531000", "101534.531000", "101534.531000", "101534.531000", "101534.531000", "101534.531000", "101534.546000", "101534.546000", "101554.500000", "101554.500000", "101554.500000", "101554.500000", "101554.515000", "101554.515000", "101554.515000", "101554.515000", "101554.515000", "101554.515000", "101554.515000", "101554.515000", "101554.531000", "101554.531000", "101554.531000", "101554.531000", "101554.531000", "101554.531000", "101554.546000", "101554.546000", "101614.500000", "101614.500000", "101614.500000", "101614.500000", "101614.515000", "101614.515000", "101614.515000", "101614.515000", "101614.515000", "101614.515000", "101614.531000", "101614.531000", "101614.531000", "101614.531000", "101614.531000", "101614.531000", "101614.531000", "101614.531000", "101614.546000", "101614.546000", "101634.500000", "101634.500000", "101634.500000", "101634.500000", "101634.515000", "101634.515000", "101634.515000", "101634.515000", "101634.515000", "101634.515000", "101634.515000", "101634.531000", "101634.531000", "101634.531000", "101634.531000", "101634.531000", "101634.531000", "101634.531000", "101634.546000", "101634.546000", "101654.500000", "101654.500000", "101654.500000", "101654.500000", "101654.515000", "101654.515000", "101654.515000", "101654.515000", "101654.515000", "101654.515000", "101654.515000", "101654.531000", "101654.531000", "101654.531000", "101654.531000", "101654.531000", "101654.531000", "101654.531000", "101654.546000", "101654.546000", "101714.500000", "101714.500000", "101714.515000", "101714.515000", "101714.515000", "101714.515000", "101714.531000", "101714.531000", "101714.531000", "101714.531000", "101714.531000", "101714.531000", "101714.531000", "101714.546000", "101714.546000", "101714.546000", "101714.546000", "101714.546000", "101714.546000", "101714.546000", "101734.500000", "101734.515000", "101734.515000", "101734.515000", "101734.515000", "101734.515000", "101734.531000", "101734.531000", "101734.531000", "101734.531000", "101734.531000", "101734.531000", "101734.531000", "101734.546000", "101734.546000", "101734.546000", "101734.546000", "101734.546000", "101734.546000", "101734.546000", "101754.500000", "101754.500000", "101754.500000", "101754.500000", "101754.515000", "101754.515000", "101754.531000", "101754.531000", "101754.531000", "101754.531000", "101754.531000", "101754.531000", "101754.531000", "101754.531000", "101754.546000", "101754.546000", "101754.546000", "101754.546000", "101754.546000", "101754.546000", "101814.500000", "101814.500000", "101814.500000", "101814.515000", "101814.515000", "101814.515000", "101814.515000", "101814.515000", "101814.515000", "101814.515000", "101814.531000", "101814.531000", "101814.531000", "101814.531000", "101814.546000", "101814.546000", "101814.546000", "101814.546000", "101814.546000", "101814.546000", "101834.500000", "101834.500000", "101834.500000", "101834.500000", "101834.515000", "101834.515000", "101834.515000", "101834.515000", "101834.515000", "101834.515000", "101834.515000", "101834.515000", "101834.531000", "101834.531000", "101834.531000", "101834.531000", "101834.531000", "101834.531000", "101834.531000", "101834.546000", "101854.500000", "101854.500000", "101854.500000", "101854.500000", "101854.515000", "101854.515000", "101854.515000", "101854.515000", "101854.515000", "101854.515000", "101854.515000", "101854.515000", "101854.531000", "101854.531000", "101854.531000", "101854.531000", "101854.531000", "101854.531000", "101854.531000", "101854.546000", "101914.500000", "101914.500000", "101914.500000", "101914.500000", "101914.515000", "101914.515000", "101914.515000", "101914.515000", "101914.515000", "101914.515000", "101914.515000", "101914.515000", "101914.531000", "101914.531000", "101914.531000", "101914.531000", "101914.531000", "101914.531000", "101914.546000", "101914.546000", "101934.500000", "101934.500000", "101934.515000", "101934.515000", "101934.515000", "101934.515000", "101934.515000", "101934.515000", "101934.515000", "101934.531000", "101934.531000", "101934.531000", "101934.531000", "101934.531000", "101934.531000", "101934.531000", "101934.546000", "101934.546000", "101934.546000", "101934.546000", "101940.890000", "101940.890000"],
      "InstanceCreationTime": ["101434.531000", "101434.546000", "101434.546000", "101434.546000", "101434.546000", "101434.546000", "101434.562000", "101434.562000", "101434.562000", "101434.562000", "101434.562000", "101434.562000", "101434.562000", "101434.578000", "101434.578000", "101434.578000", "101434.578000", "101434.578000", "101434.578000", "101434.593000", "101434.593000", "101434.593000", "101434.593000", "101434.593000", "101434.593000", "101434.593000", "101434.609000", "101434.609000", "101454.500000", "101454.500000", "101454.500000", "101454.500000", "101454.515000", "101454.515000", "101454.515000", "101454.515000", "101454.515000", "101454.515000", "101454.515000", "101454.515000", "101454.531000", "101454.531000", "101454.531000", "101454.531000", "101454.531000", "101454.531000", "101454.531000", "101454.546000", "101514.500000", "101514.500000", "101514.500000", "101514.500000", "101514.515000", "101514.515000", "101514.515000", "101514.515000", "101514.531000", "101514.531000", "101514.531000", "101514.531000", "101514.531000", "101514.531000", "101514.546000", "101514.546000", "101514.546000", "101514.546000", "101514.546000", "101514.546000", "101534.500000", "101534.500000", "101534.500000", "101534.500000", "101534.515000", "101534.515000", "101534.515000", "101534.515000", "101534.515000", "101534.515000", "101534.515000", "101534.515000", "101534.531000", "101534.531000", "101534.531000", "101534.531000", "101534.531000", "101534.531000", "101534.546000", "101534.546000", "101554.500000", "101554.500000", "101554.500000", "101554.500000", "101554.515000", "101554.515000", "101554.515000", "101554.515000", "101554.515000", "101554.515000", "101554.515000", "101554.515000", "101554.531000", "101554.531000", "101554.531000", "101554.531000", "101554.531000", "101554.531000", "101554.546000", "101554.546000", "101614.500000", "101614.500000", "101614.500000", "101614.500000", "101614.515000", "101614.515000", "101614.515000", "101614.515000", "101614.515000", "101614.515000", "101614.531000", "101614.531000", "101614.531000", "101614.531000", "101614.531000", "101614.531000", "101614.531000", "101614.531000", "101614.546000", "101614.546000", "101634.500000", "101634.500000", "101634.500000", "101634.500000", "101634.515000", "101634.515000", "101634.515000", "101634.515000", "101634.515000", "101634.515000", "101634.515000", "101634.531000", "101634.531000", "101634.531000", "101634.531000", "101634.531000", "101634.531000", "101634.531000", "101634.546000", "101634.546000", "101654.500000", "101654.500000", "101654.500000", "101654.500000", "101654.515000", "101654.515000", "101654.515000", "101654.515000", "101654.515000", "101654.515000", "101654.515000", "101654.531000", "101654.531000", "101654.531000", "101654.531000", "101654.531000", "101654.531000", "101654.531000", "101654.546000", "101654.546000", "101714.500000", "101714.500000", "101714.515000", "101714.515000", "101714.515000", "101714.515000", "101714.531000", "101714.531000", "101714.531000", "101714.531000", "101714.531000", "101714.531000", "101714.531000", "101714.546000", "101714.546000", "101714.546000", "101714.546000", "101714.546000", "101714.546000", "101714.546000", "101734.500000", "101734.515000", "101734.515000", "101734.515000", "101734.515000", "101734.515000", "101734.531000", "101734.531000", "101734.531000", "101734.531000", "101734.531000", "101734.531000", "101734.531000", "101734.546000", "101734.546000", "101734.546000", "101734.546000", "101734.546000", "101734.546000", "101734.546000", "101754.500000", "101754.500000", "101754.500000", "101754.500000", "101754.515000", "101754.515000", "101754.531000", "101754.531000", "101754.531000", "101754.531000", "101754.531000", "101754.531000", "101754.531000", "101754.531000", "101754.546000", "101754.546000", "101754.546000", "101754.546000", "101754.546000", "101754.546000", "101814.500000", "101814.500000", "101814.500000", "101814.515000", "101814.515000", "101814.515000", "101814.515000", "101814.515000", "101814.515000", "101814.515000", "101814.531000", "101814.531000", "101814.531000", "101814.531000", "101814.546000", "101814.546000", "101814.546000", "101814.546000", "101814.546000", "101814.546000", "101834.500000", "101834.500000", "101834.500000", "101834.500000", "101834.515000", "101834.515000", "101834.515000", "101834.515000", "101834.515000", "101834.515000", "101834.515000", "101834.515000", "101834.531000", "101834.531000", "101834.531000", "101834.531000", "101834.531000", "101834.531000", "101834.531000", "101834.546000", "101854.500000", "101854.500000", "101854.500000", "101854.500000", "101854.515000", "101854.515000", "101854.515000", "101854.515000", "101854.515000", "101854.515000", "101854.515000", "101854.515000", "101854.531000", "101854.531000", "101854.531000", "101854.531000", "101854.531000", "101854.531000", "101854.531000", "101854.546000", "101914.500000", "101914.500000", "101914.500000", "101914.500000", "101914.515000", "101914.515000", "101914.515000", "101914.515000", "101914.515000", "101914.515000", "101914.515000", "101914.515000", "101914.531000", "101914.531000", "101914.531000", "101914.531000", "101914.531000", "101914.531000", "101914.546000", "101914.546000", "101934.500000", "101934.500000", "101934.515000", "101934.515000", "101934.515000", "101934.515000", "101934.515000", "101934.515000", "101934.515000", "101934.531000", "101934.531000", "101934.531000", "101934.531000", "101934.531000", "101934.531000", "101934.531000", "101934.546000", "101934.546000", "101934.546000", "101934.546000", "101940.890000", "101940.890000"],
      "InstanceNumber": [1, 2, 3, 4, 5, 6, 7, 8, 9, 10, 11, 12, 13, 14, 15, 16, 17, 18, 19, 20, 21, 22, 23, 24, 25, 26, 27, 28, 29, 30, 31, 32, 33, 34, 35, 36, 37, 38, 39, 40, 41, 42, 43, 44, 45, 46, 47, 48, 49, 50, 51, 52, 53, 54, 55, 56, 57, 58, 59, 60, 61, 62, 63, 64, 65, 66, 67, 68, 69, 70, 71, 72, 73, 74, 75, 76, 77, 78, 79, 80, 81, 82, 83, 84, 85, 86, 87, 88, 89, 90, 91, 92, 93, 94, 95, 96, 97, 98, 99, 100, 101, 102, 103, 104, 105, 106, 107, 108, 109, 110, 111, 112, 113, 114, 115, 116, 117, 118, 119, 120, 121, 122, 123, 124, 125, 126, 127, 128, 129, 130, 131, 132, 133, 134, 135, 136, 137, 138, 139, 140, 141, 142, 143, 144, 145, 146, 147, 148, 149, 150, 151, 152, 153, 154, 155, 156, 157, 158, 159, 160, 161, 162, 163, 164, 165, 166, 167, 168, 169, 170, 171, 172, 173, 174, 175, 176, 177, 178, 179, 180, 181, 182, 183, 184, 185, 186, 187, 188, 189, 190, 191, 192, 193, 194, 195, 196, 197, 198, 199, 200, 201, 202, 203, 204, 205, 206, 207, 208, 209, 210, 211, 212, 213, 214, 215, 216, 217, 218, 219, 220, 221, 222, 223, 224, 225, 226, 227, 228, 229, 230, 231, 232, 233, 234, 235, 236, 237, 238, 239, 240, 241, 242, 243, 244, 245, 246, 247, 248, 249, 250, 251, 252, 253, 254, 255, 256, 257, 258, 259, 260, 261, 262, 263, 264, 265, 266, 267, 268, 269, 270, 271, 272, 273, 274, 275, 276, 277, 278, 279, 280, 281, 282, 283, 284, 285, 286, 287, 288, 289, 290, 291, 292, 293, 294, 295, 296, 297, 298, 299, 300, 301, 302, 303, 304, 305, 306, 307, 308, 309, 310, 311, 312, 313, 314, 315, 316, 317, 318, 319, 320, 321, 322, 323, 324, 325, 326, 327, 328, 329, 330],
      "LargestImagePixelValue": [2915, 2898, 2902, 2892, 2838, 2890, 2896, 2815, 2927, 2850, 2799, 2819, 2869, 2867, 2831, 2814, 2841, 2833, 2877, 2853, 2888, 2870, 2814, 2850, 2886, 2831, 2891, 2851, 2867, 2843, 2850, 2857, 2845, 2793, 2848, 2950, 2807, 2933, 2859, 2885, 2868, 2893, 2868, 2891, 2894, 2854, 2830, 2907, 2907, 2963, 2821, 2891, 2889, 2909, 2925, 2940, 2952, 2927, 2847, 2913, 2906, 2864, 2922, 2932, 2943, 2982, 2919, 2991, 2913, 2936, 2901, 2945, 2895, 2892, 2930, 2989, 3033, 2958, 2998, 2981, 2991, 2986, 2941, 2928, 2980, 3015, 2990, 2976, 3028, 2942, 2935, 2942, 2982, 2948, 2930, 2978, 3045, 2968, 2994, 3062, 2971, 2979, 3002, 2967, 2976, 3028, 3023, 2957, 2990, 3011, 3005, 3009, 3012, 3022, 3017, 3029, 2944, 2960, 3031, 2986, 2990, 3016, 2971, 3012, 3000, 2989, 2987, 3016, 2972, 2986, 3049, 3014, 2993, 3000, 3009, 2970, 2990, 3031, 3011, 2991, 3064, 3049, 3036, 2994, 2998, 2997, 2961, 3030, 3022, 3019, 2985, 3078, 2961, 3039, 2989, 3017, 3021, 3058, 2996, 3042, 3019, 2993, 3018, 2972, 3031, 3007, 3094, 3007, 3020, 3025, 3056, 3052, 2999, 3059, 3008, 2970, 3042, 3021, 3066, 3066, 3048, 3014, 2987, 3060, 3029, 3019, 3023, 3021, 2986, 3053, 3052, 2983, 3036, 3031, 3037, 2985, 2997, 2961, 3007, 2992, 3008, 3052, 3012, 3035, 2987, 3050, 3028, 2995, 3020, 3029, 3028, 3020, 3016, 2987, 3043, 3033, 2987, 2999, 3029, 3038, 3001, 2999, 3016, 2997, 2992, 3018, 3003, 2977, 2985, 2995, 2891, 2934, 2959, 2960, 2923, 2949, 2979, 3003, 2970, 3011, 2978, 2980, 2968, 2980, 3024, 3000, 2986, 2968, 2993, 2950, 3033, 3025, 2972, 2989, 2972, 2961, 2976, 2948, 2966, 2961, 2960, 3006, 3000, 2958, 2961, 2968, 2962, 3014, 3011, 3057, 3010, 2964, 2968, 2950, 2978, 2921, 3009, 2971, 2985, 2990, 3018, 2990, 3011, 3040, 2981, 2964, 2977, 3014, 3039, 2986, 3006, 3018, 3017, 2980, 3022, 2922, 3051, 3065, 2976, 2961, 3010, 2976, 2969, 2937, 3027, 2998, 2977, 3061, 3016, 2996, 2930, 2975, 2947, 2999, 3036, 3077, 3048, 3075, 3023, 3012, 3044, 3042, 3004, 3013, 3003, 3034, 3048, 2991, 2990, 3028],
      "WindowCenter": [438.0, 437.0, 437.0, 436.0, 435.0, 436.0, 436.0, 436.0, 437.0, 436.0, 436.0, 436.0, 436.0, 437.0, 437.0, 437.0, 437.0, 437.0, 437.0, 437.0, 437.0, 437.0, 437.0, 437.0, 437.0, 436.0, 436.0, 436.0, 436.0, 436.0, 436.0, 436.0, 436.0, 436.0, 435.0, 437.0, 435.0, 436.0, 434.0, 434.0, 434.0, 434.0, 434.0, 434.0, 435.0, 434.0, 434.0, 435.0, 435.0, 436.0, 437.0, 438.0, 438.0, 439.0, 438.0, 437.0, 436.0, 436.0, 435.0, 436.0, 436.0, 435.0, 436.0, 435.0, 436.0, 436.0, 436.0, 437.0, 436.0, 435.0, 434.0, 435.0, 434.0, 434.0, 434.0, 434.0, 436.0, 436.0, 437.0, 437.0, 437.0, 436.0, 435.0, 435.0, 435.0, 435.0, 436.0, 436.0, 437.0, 437.0, 437.0, 436.0, 436.0, 435.0, 435.0, 436.0, 436.0, 436.0, 437.0, 438.0, 437.0, 437.0, 437.0, 436.0, 436.0, 436.0, 437.0, 437.0, 438.0, 438.0, 437.0, 437.0, 437.0, 437.0, 437.0, 438.0, 437.0, 436.0, 436.0, 436.0, 436.0, 436.0, 436.0, 437.0, 436.0, 437.0, 437.0, 437.0, 436.0, 437.0, 438.0, 438.0, 438.0, 438.0, 437.0, 437.0, 436.0, 436.0, 436.0, 436.0, 437.0, 438.0, 438.0, 437.0, 437.0, 437.0, 437.0, 437.0, 437.0, 437.0, 437.0, 438.0, 437.0, 437.0, 437.0, 438.0, 438.0, 439.0, 439.0, 438.0, 437.0, 436.0, 436.0, 436.0, 436.0, 436.0, 437.0, 437.0, 438.0, 438.0, 438.0, 437.0, 436.0, 436.0, 436.0, 435.0, 436.0, 436.0, 436.0, 437.0, 438.0, 438.0, 437.0, 437.0, 437.0, 436.0, 436.0, 437.0, 437.0, 438.0, 438.0, 437.0, 438.0, 438.0, 439.0, 438.0, 438.0, 438.0, 438.0, 437.0, 437.0, 437.0, 437.0, 437.0, 436.0, 437.0, 436.0, 436.0, 436.0, 436.0, 437.0, 437.0, 438.0, 438.0, 438.0, 438.0, 437.0, 437.0, 438.0, 438.0, 437.0, 437.0, 438.0, 437.0, 438.0, 437.0, 437.0, 436.0, 437.0, 438.0, 437.0, 438.0, 438.0, 437.0, 436.0, 436.0, 436.0, 436.0, 436.0, 438.0, 438.0, 438.0, 437.0, 437.0, 437.0, 436.0, 436.0, 435.0, 436.0, 436.0, 437.0, 437.0, 436.0, 436.0, 436.0, 436.0, 436.0, 435.0, 435.0, 436.0, 437.0, 438.0, 438.0, 438.0, 437.0, 438.0, 436.0, 437.0, 438.0, 438.0, 439.0, 439.0, 438.0, 438.0, 437.0, 436.0, 437.0, 437.0, 437.0, 438.0, 437.0, 437.0, 437.0, 437.0, 436.0, 436.0, 437.0, 437.0, 438.0, 437.0, 437.0, 437.0, 437.0, 436.0, 436.0, 435.0, 437.0, 437.0, 437.0, 438.0, 438.0, 437.0, 436.0, 436.0, 437.0, 436.0, 437.0, 438.0, 437.0, 436.0, 436.0, 436.0, 436.0, 436.0, 437.0, 438.0, 438.0, 439.0, 438.0, 437.0, 437.0, 437.0, 435.0, 436.0, 436.0, 436.0, 436.0, 436.0, 436.0, 436.0],
