{
  "AcquisitionMatrixPE": 104,
  "AcquisitionNumber": 1,
  "AcquisitionTime": "09:31:39.365000",
  "BandwidthPerPixelPhaseEncode": 43.054,
  "BaseResolution": 104,
  "CoilString": "C:E1_2",
  "ConversionSoftware": "dcm2niix",
  "ConversionSoftwareVersion": "v1.0.20191031",
  "DerivedVendorReportedEchoSpacing": 0.000669999,
  "DeviceSerialNumber": "18932",
  "DwellTime": 2.8e-06,
  "EchoTime": 0.02,
  "EffectiveEchoSpacing": 0.000223333,
  "FlipAngle": 30,
  "ImageComments": "Unaliased_MB2_PE2",
  "ImageOrientationPatientDICOM": [1, -1e-16, 0, 1e-16, 0.979925, -0.199368],
  "ImageType": [
    "ORIGINAL",
    "PRIMARY",
    "M",
    "MB",
    "ND",
    "MOSAIC"
],
  "ImagingFrequency": 297.229,
  "InPlanePhaseEncodingDirectionDICOM": "COL",
  "InstitutionAddress": "Richmond_Street_North_1151_London_409EF2_Ontario_CA_N6A_5B7",
  "InstitutionName": "Robarts_Reserch_Institute",
  "InstitutionalDepartmentName": "Department",
  "MRAcquisitionType": "2D",
  "MagneticFieldStrength": 6.98,
  "Manufacturer": "Siemens",
  "ManufacturersModelName": "Investigational_Device_7T",
  "Modality": "MR",
  "MultibandAccelerationFactor": 2,
  "ParallelReductionFactorInPlane": 3,
  "PartialFourier": 0.875,
  "PatientPosition": "HFS",
  "PercentPhaseFOV": 100,
  "PhaseEncodingDirection": "j-",
  "PhaseEncodingSteps": 91,
  "PhaseResolution": 1,
  "PixelBandwidth": 1717,
  "ProcedureStepDescription": "Diedrichsen_SeqRep4",
  "ProtocolName": "mbep2d_bold_mb2_p3_AP_2iso",
  "PulseSequenceDetails": "%CustomerSeq%_cmrr_mbep2d_bold",
  "ReceiveCoilName": "CFMM_8Tx32Rx",
  "ReconMatrixPE": 104,
  "RefLinesPE": 36,
  "RepetitionTime": 1,
  "ScanOptions": "PFP_FS",
  "ScanningSequence": "EP",
  "SequenceName": "epfid2d1_104",
  "SequenceVariant": "SK_SS",
  "SeriesDescription": "mbep2d_bold_mb2_p3_AP_2iso",
  "SeriesNumber": 19,
  "ShimSetting": [5, 2115, 64, 1356, 38, -3, 144, -167],
  "SliceThickness": 2,
  "SliceTiming": [0, 0.23, 0.4575, 0.685, 0.9125, 0.1375, 0.365, 0.595, 0.8225, 0.0475, 0.275, 0.5025, 0.73, 0.96, 0.1825, 0.4125, 0.64, 0.8675, 0.0925, 0.32, 0.5475, 0.7775, 0, 0.23, 0.4575, 0.685, 0.9125, 0.1375, 0.365, 0.595, 0.8225, 0.0475, 0.275, 0.5025, 0.73, 0.96, 0.1825, 0.4125, 0.64, 0.8675, 0.0925, 0.32, 0.5475, 0.7775],
  "SoftwareVersions": "syngo_MR_B17",
  "SpacingBetweenSlices": 2,
  "StationName": "MASTER",
  "TaskName": "dsp",
  "TotalReadoutTime": 0.0230033,
  "TxRefAmp": 120,
  "dcmmeta_affine": [
    [-2.0, 2.000000033724767e-16, -3.987358960979601e-17, 105.4527816772461],
    [2.000000033724767e-16, 1.9598493576049805, -0.3987358808517456, -107.36229705810547],
    [0.0, 0.3987358808517456, 1.9598493576049805, -42.90914535522461],
    [0.0, 0.0, 0.0, 1.0]
],
  "dcmmeta_reorient_transform": [
    [0.0, -1.0, 0.0, 103.0],
    [1.0, 0.0, 0.0, 0.0],
    [0.0, 0.0, 1.0, 0.0],
    [0.0, 0.0, 0.0, 1.0]
],
  "dcmmeta_shape": [104, 104, 44, 330],
  "dcmmeta_slice_dim": 2,
  "dcmmeta_version": 0.6,
  "global": {
    "const": {
      "AcquisitionMatrix": [104, 0, 0, 104],
      "AngioFlag": "N",
      "BitsAllocated": 16,
      "BitsStored": 12,
      "Columns": 728,
      "EchoNumbers": 1,
      "EchoTime": 20.0,
      "EchoTrainLength": 1,
      "FlipAngle": 30.0,
      "HighBit": 11,
      "ImageOrientationPatient": [1.0, -1e-16, 0.0, 1e-16, 0.97992470268924, -0.1993679439113],
      "ImagePositionPatient": [-729.45278453827, -705.97520707538, 122.56624713957],
      "ImageType": [
        "ORIGINAL",
        "PRIMARY",
        "M",
        "MB",
        "ND",
        "MOSAIC"
],
      "ImagedNucleus": "1H",
      "ImagingFrequency": 297.228758,
      "InPlanePhaseEncodingDirection": "COL",
      "MRAcquisitionType": "2D",
      "MagneticFieldStrength": 6.98,
      "Manufacturer": "SIEMENS",
      "ManufacturerModelName": "Investigational_Device_7T",
      "Modality": "MR",
      "NumberOfAverages": 1.0,
      "NumberOfPhaseEncodingSteps": 91,
      "PercentPhaseFieldOfView": 100.0,
      "PercentSampling": 100.0,
      "PerformedProcedureStepStartTime": "084204.984000",
      "PhotometricInterpretation": "MONOCHROME2",
      "PixelBandwidth": 1717.0,
      "PixelRepresentation": 0,
      "PixelSpacing": [2.0, 2.0],
      "ProtocolName": "mbep2d_bold_mb2_p3_AP 2iso",
      "RepetitionTime": 1000.0,
      "Rows": 728,
      "SAR": 0.0,
      "SamplesPerPixel": 1,
      "ScanOptions": [
        "PFP",
        "FS"
],
      "ScanningSequence": "EP",
      "SequenceName": "epfid2d1_104",
      "SequenceVariant": [
        "SK",
        "SS"
],
      "SeriesDescription": "mbep2d_bold_mb2_p3_AP 2iso",
      "SeriesNumber": 19,
      "SeriesTime": "093154.531000",
      "SliceLocation": -20.643132198969,
      "SliceThickness": 2.0,
      "SmallestImagePixelValue": 0,
      "SoftwareVersions": "syngo MR B17",
      "SpacingBetweenSlices": 2.0000000120211,
      "SpecificCharacterSet": "ISO_IR 100",
      "StudyID": "1",
      "StudyTime": "084204.531000",
      "TransmitCoilName": "CFMM_8Tx32Rx",
      "VariableFlipAngleFlag": "N",
      "WindowCenterWidthExplanation": "Algo1",
      "dBdt": 0.0},
    "slices": {}
  },
  "time": {
    "samples": {
      "AcquisitionNumber": [1, 2, 3, 4, 5, 6, 7, 8, 9, 10, 11, 12, 13, 14, 15, 16, 17, 18, 19, 20, 21, 22, 23, 24, 25, 26, 27, 28, 29, 30, 31, 32, 33, 34, 35, 36, 37, 38, 39, 40, 41, 42, 43, 44, 45, 46, 47, 48, 49, 50, 51, 52, 53, 54, 55, 56, 57, 58, 59, 60, 61, 62, 63, 64, 65, 66, 67, 68, 69, 70, 71, 72, 73, 74, 75, 76, 77, 78, 79, 80, 81, 82, 83, 84, 85, 86, 87, 88, 89, 90, 91, 92, 93, 94, 95, 96, 97, 98, 99, 100, 101, 102, 103, 104, 105, 106, 107, 108, 109, 110, 111, 112, 113, 114, 115, 116, 117, 118, 119, 120, 121, 122, 123, 124, 125, 126, 127, 128, 129, 130, 131, 132, 133, 134, 135, 136, 137, 138, 139, 140, 141, 142, 143, 144, 145, 146, 147, 148, 149, 150, 151, 152, 153, 154, 155, 156, 157, 158, 159, 160, 161, 162, 163, 164, 165, 166, 167, 168, 169, 170, 171, 172, 173, 174, 175, 176, 177, 178, 179, 180, 181, 182, 183, 184, 185, 186, 187, 188, 189, 190, 191, 192, 193, 194, 195, 196, 197, 198, 199, 200, 201, 202, 203, 204, 205, 206, 207, 208, 209, 210, 211, 212, 213, 214, 215, 216, 217, 218, 219, 220, 221, 222, 223, 224, 225, 226, 227, 228, 229, 230, 231, 232, 233, 234, 235, 236, 237, 238, 239, 240, 241, 242, 243, 244, 245, 246, 247, 248, 249, 250, 251, 252, 253, 254, 255, 256, 257, 258, 259, 260, 261, 262, 263, 264, 265, 266, 267, 268, 269, 270, 271, 272, 273, 274, 275, 276, 277, 278, 279, 280, 281, 282, 283, 284, 285, 286, 287, 288, 289, 290, 291, 292, 293, 294, 295, 296, 297, 298, 299, 300, 301, 302, 303, 304, 305, 306, 307, 308, 309, 310, 311, 312, 313, 314, 315, 316, 317, 318, 319, 320, 321, 322, 323, 324, 325, 326, 327, 328, 329, 330],
      "AcquisitionTime": ["093139.365000", "093140.370000", "093141.375000", "093142.377500", "093143.382500", "093144.385000", "093145.390000", "093146.395000", "093147.397500", "093148.402500", "093149.405000", "093150.410000", "093151.415000", "093152.417500", "093153.422500", "093154.427500", "093155.430000", "093156.435000", "093157.437500", "093158.442500", "093159.447500", "093200.450000", "093201.455000", "093202.457500", "093203.462500", "093204.467500", "093205.470000", "093206.475000", "093207.477500", "093208.482500", "093209.487500", "093210.490000", "093211.495000", "093212.497500", "093213.502500", "093214.507500", "093215.510000", "093216.515000", "093217.517500", "093218.522500", "093219.527500", "093220.530000", "093221.535000", "093222.537500", "093223.542500", "093224.547500", "093225.550000", "093226.555000", "093227.560000", "093228.562500", "093229.567500", "093230.570000", "093231.575000", "093232.580000", "093233.582500", "093234.587500", "093235.590000", "093236.595000", "093237.600000", "093238.602500", "093239.607500", "093240.610000", "093241.615000", "093242.620000", "093243.622500", "093244.627500", "093245.630000", "093246.635000", "093247.640000", "093248.642500", "093249.647500", "093250.650000", "093251.655000", "093252.660000", "093253.662500", "093254.667500", "093255.672500", "093256.675000", "093257.680000", "093258.682500", "093259.687500", "093300.692500", "093301.695000", "093302.700000", "093303.702500", "093304.707500", "093305.712500", "093306.715000", "093307.720000", "093308.722500", "093309.727500", "093310.732500", "093311.735000", "093312.740000", "093313.742500", "093314.747500", "093315.752500", "093316.755000", "093317.760000", "093318.762500", "093319.767500", "093320.772500", "093321.775000", "093322.780000", "093323.782500", "093324.787500", "093325.792500", "093326.795000", "093327.800000", "093328.805000", "093329.807500", "093330.812500", "093331.815000", "093332.820000", "093333.825000", "093334.827500", "093335.832500", "093336.835000", "093337.840000", "093338.845000", "093339.847500", "093340.852500", "093341.855000", "093342.860000", "093343.865000", "093344.867500", "093345.872500", "093346.875000", "093347.880000", "093348.885000", "093349.887500", "093350.892500", "093351.895000", "093352.900000", "093353.905000", "093354.907500", "093355.912500", "093356.917500", "093357.920000", "093358.925000", "093359.927500", "093400.932500", "093401.937500", "093402.940000", "093403.945000", "093404.947500", "093405.952500", "093406.957500", "093407.960000", "093408.965000", "093409.967500", "093410.972500", "093411.977500", "093412.980000", "093413.985000", "093414.987500", "093415.992500", "093416.997500", "093418.000000", "093419.005000", "093420.007500", "093421.012500", "093422.017500", "093423.020000", "093424.025000", "093425.027500", "093426.032500", "093427.037500", "093428.040000", "093429.045000", "093430.050000", "093431.052500", "093432.057500", "093433.060000", "093434.065000", "093435.070000", "093436.072500", "093437.077500", "093438.080000", "093439.085000", "093440.090000", "093441.092500", "093442.097500", "093443.100000", "093444.105000", "093445.110000", "093446.112500", "093447.117500", "093448.120000", "093449.125000", "093450.130000", "093451.132500", "093452.137500", "093453.140000", "093454.145000", "093455.150000", "093456.152500", "093457.157500", "093458.160000", "093459.165000", "093500.170000", "093501.172500", "093502.177500", "093503.182500", "093504.185000", "093505.190000", "093506.192500", "093507.197500", "093508.202500", "093509.205000", "093510.210000", "093511.212500", "093512.217500", "093513.222500", "093514.225000", "093515.230000", "093516.232500", "093517.237500", "093518.242500", "093519.245000", "093520.250000", "093521.252500", "093522.257500", "093523.262500", "093524.265000", "093525.270000", "093526.272500", "093527.277500", "093528.282500", "093529.285000", "093530.290000", "093531.295000", "093532.297500", "093533.302500", "093534.305000", "093535.310000", "093536.315000", "093537.317500", "093538.322500", "093539.325000", "093540.330000", "093541.335000", "093542.337500", "093543.342500", "093544.345000", "093545.350000", "093546.355000", "093547.357500", "093548.362500", "093549.365000", "093550.370000", "093551.375000", "093552.377500", "093553.382500", "093554.385000", "093555.390000", "093556.395000", "093557.397500", "093558.402500", "093559.405000", "093600.410000", "093601.415000", "093602.417500", "093603.422500", "093604.427500", "093605.430000", "093606.435000", "093607.437500", "093608.442500", "093609.447500", "093610.450000", "093611.455000", "093612.457500", "093613.462500", "093614.467500", "093615.470000", "093616.475000", "093617.477500", "093618.482500", "093619.487500", "093620.490000", "093621.495000", "093622.497500", "093623.502500", "093624.507500", "093625.510000", "093626.515000", "093627.517500", "093628.522500", "093629.527500", "093630.530000", "093631.535000", "093632.537500", "093633.542500", "093634.547500", "093635.550000", "093636.555000", "093637.560000", "093638.562500", "093639.567500", "093640.570000", "093641.575000", "093642.580000", "093643.582500", "093644.587500", "093645.590000", "093646.595000", "093647.600000", "093648.602500", "093649.607500", "093650.610000", "093651.615000", "093652.620000", "093653.622500", "093654.627500", "093655.630000", "093656.635000", "093657.640000", "093658.642500", "093659.647500", "093700.650000", "093701.655000", "093702.660000", "093703.662500", "093704.667500", "093705.672500", "093706.675000", "093707.680000", "093708.682500", "093709.687500"],
      "ContentTime": ["093154.546000", "093154.546000", "093154.562000", "093154.562000", "093154.562000", "093154.562000", "093154.562000", "093154.562000", "093154.578000", "093154.578000", "093154.578000", "093154.578000", "093154.578000", "093154.578000", "093214.500000", "093214.500000", "093214.500000", "093214.515000", "093214.515000", "093214.515000", "093214.515000", "093214.515000", "093214.515000", "093214.531000", "093214.531000", "093214.546000", "093214.546000", "093214.546000", "093214.546000", "093214.546000", "093214.546000", "093214.546000", "093214.562000", "093214.562000", "093234.500000", "093234.500000", "093234.500000", "093234.515000", "093234.515000", "093234.515000", "093234.515000", "093234.531000", "093234.531000", "093234.531000", "093234.531000", "093234.546000", "093234.546000", "093234.546000", "093234.546000", "093234.546000", "093234.546000", "093234.546000", "093234.562000", "093234.562000", "093254.500000", "093254.500000", "093254.500000", "093254.515000", "093254.515000", "093254.515000", "093254.515000", "093254.531000", "093254.531000", "093254.531000", "093254.531000", "093254.531000", "093254.546000", "093254.546000", "093254.546000", "093254.546000", "093254.546000", "093254.546000", "093254.546000", "093254.562000", "093314.500000", "093314.500000", "093314.500000", "093314.500000", "093314.515000", "093314.515000", "093314.515000", "093314.515000", "093314.515000", "093314.515000", "093314.515000", "093314.515000", "093314.531000", "093314.531000", "093314.531000", "093314.531000", "093314.531000", "093314.531000", "093314.531000", "093314.546000", "093334.500000", "093334.500000", "093334.515000", "093334.531000", "093334.531000", "093334.531000", "093334.531000", "093334.531000", "093334.531000", "093334.546000", "093334.546000", "093334.546000", "093334.546000", "093334.546000", "093334.546000", "093334.546000", "093334.562000", "093334.562000", "093334.562000", "093334.562000", "093354.500000", "093354.500000", "093354.500000", "093354.515000", "093354.515000", "093354.515000", "093354.515000", "093354.515000", "093354.531000", "093354.531000", "093354.531000", "093354.531000", "093354.531000", "093354.531000", "093354.546000", "093354.546000", "093354.546000", "093354.546000", "093354.546000", "093354.546000", "093414.500000", "093414.515000", "093414.515000", "093414.515000", "093414.515000", "093414.531000", "093414.531000", "093414.531000", "093414.531000", "093414.531000", "093414.531000", "093414.531000", "093414.546000", "093414.546000", "093414.546000", "093414.546000", "093414.546000", "093414.562000", "093414.562000", "093414.562000", "093434.500000", "093434.500000", "093434.500000", "093434.500000", "093434.515000", "093434.515000", "093434.515000", "093434.515000", "093434.515000", "093434.515000", "093434.531000", "093434.531000", "093434.531000", "093434.531000", "093434.546000", "093434.546000", "093434.546000", "093434.546000", "093434.546000", "093434.562000", "093454.500000", "093454.500000", "093454.500000", "093454.515000", "093454.515000", "093454.531000", "093454.531000", "093454.546000", "093454.546000", "093454.546000", "093454.546000", "093454.546000", "093454.546000", "093454.562000", "093454.562000", "093454.578000", "093454.578000", "093454.578000", "093454.578000", "093454.593000", "093514.500000", "093514.500000", "093514.500000", "093514.515000", "093514.515000", "093514.531000", "093514.531000", "093514.531000", "093514.531000", "093514.531000", "093514.531000", "093514.546000", "093514.546000", "093514.546000", "093514.546000", "093514.562000", "093514.562000", "093514.562000", "093514.562000", "093514.562000", "093534.500000", "093534.500000", "093534.500000", "093534.531000", "093534.546000", "093534.546000", "093534.562000", "093534.562000", "093534.562000", "093534.578000", "093534.578000", "093534.578000", "093534.578000", "093534.578000", "093534.593000", "093534.593000", "093534.593000", "093534.593000", "093534.593000", "093534.593000", "093554.500000", "093554.500000", "093554.500000", "093554.515000", "093554.515000", "093554.531000", "093554.531000", "093554.531000", "093554.546000", "093554.546000", "093554.546000", "093554.546000", "093554.546000", "093554.546000", "093554.546000", "093554.562000", "093554.562000", "093554.562000", "093554.562000", "093554.562000", "093614.500000", "093614.500000", "093614.500000", "093614.515000", "093614.531000", "093614.531000", "093614.531000", "093614.546000", "093614.546000", "093614.546000", "093614.546000", "093614.562000", "093614.562000", "093614.562000", "093614.562000", "093614.562000", "093614.562000", "093614.562000", "093614.578000", "093614.578000", "093634.500000", "093634.500000", "093634.500000", "093634.531000", "093634.531000", "093634.531000", "093634.531000", "093634.546000", "093634.546000", "093634.546000", "093634.546000", "093634.546000", "093634.546000", "093634.546000", "093634.546000", "093634.562000", "093634.562000", "093634.562000", "093634.562000", "093634.562000", "093654.500000", "093654.500000", "093654.500000", "093654.515000", "093654.515000", "093654.515000", "093654.515000", "093654.531000", "093654.531000", "093654.531000", "093654.531000", "093654.546000", "093654.546000", "093654.546000", "093654.546000", "093654.546000", "093654.546000", "093654.562000", "093654.562000", "093654.562000", "093714.859000", "093714.859000", "093714.859000", "093714.875000", "093714.875000", "093714.875000", "093714.875000", "093714.890000", "093714.890000", "093714.890000", "093714.890000", "093714.890000", "093714.890000", "093714.890000", "093714.906000", "093714.906000"],
      "InstanceCreationTime": ["093154.546000", "093154.546000", "093154.562000", "093154.562000", "093154.562000", "093154.562000", "093154.562000", "093154.562000", "093154.578000", "093154.578000", "093154.578000", "093154.578000", "093154.578000", "093154.578000", "093214.500000", "093214.500000", "093214.500000", "093214.515000", "093214.515000", "093214.515000", "093214.515000", "093214.515000", "093214.515000", "093214.531000", "093214.531000", "093214.546000", "093214.546000", "093214.546000", "093214.546000", "093214.546000", "093214.546000", "093214.546000", "093214.562000", "093214.562000", "093234.500000", "093234.500000", "093234.500000", "093234.515000", "093234.515000", "093234.515000", "093234.515000", "093234.531000", "093234.531000", "093234.531000", "093234.531000", "093234.546000", "093234.546000", "093234.546000", "093234.546000", "093234.546000", "093234.546000", "093234.546000", "093234.562000", "093234.562000", "093254.500000", "093254.500000", "093254.500000", "093254.515000", "093254.515000", "093254.515000", "093254.515000", "093254.531000", "093254.531000", "093254.531000", "093254.531000", "093254.531000", "093254.546000", "093254.546000", "093254.546000", "093254.546000", "093254.546000", "093254.546000", "093254.546000", "093254.562000", "093314.500000", "093314.500000", "093314.500000", "093314.500000", "093314.515000", "093314.515000", "093314.515000", "093314.515000", "093314.515000", "093314.515000", "093314.515000", "093314.515000", "093314.531000", "093314.531000", "093314.531000", "093314.531000", "093314.531000", "093314.531000", "093314.531000", "093314.546000", "093334.500000", "093334.500000", "093334.515000", "093334.531000", "093334.531000", "093334.531000", "093334.531000", "093334.531000", "093334.531000", "093334.546000", "093334.546000", "093334.546000", "093334.546000", "093334.546000", "093334.546000", "093334.546000", "093334.562000", "093334.562000", "093334.562000", "093334.562000", "093354.500000", "093354.500000", "093354.500000", "093354.515000", "093354.515000", "093354.515000", "093354.515000", "093354.515000", "093354.531000", "093354.531000", "093354.531000", "093354.531000", "093354.531000", "093354.531000", "093354.546000", "093354.546000", "093354.546000", "093354.546000", "093354.546000", "093354.546000", "093414.500000", "093414.515000", "093414.515000", "093414.515000", "093414.515000", "093414.531000", "093414.531000", "093414.531000", "093414.531000", "093414.531000", "093414.531000", "093414.531000", "093414.546000", "093414.546000", "093414.546000", "093414.546000", "093414.546000", "093414.562000", "093414.562000", "093414.562000", "093434.500000", "093434.500000", "093434.500000", "093434.500000", "093434.515000", "093434.515000", "093434.515000", "093434.515000", "093434.515000", "093434.515000", "093434.531000", "093434.531000", "093434.531000", "093434.531000", "093434.546000", "093434.546000", "093434.546000", "093434.546000", "093434.546000", "093434.562000", "093454.500000", "093454.500000", "093454.500000", "093454.515000", "093454.515000", "093454.531000", "093454.531000", "093454.546000", "093454.546000", "093454.546000", "093454.546000", "093454.546000", "093454.546000", "093454.562000", "093454.562000", "093454.578000", "093454.578000", "093454.578000", "093454.578000", "093454.593000", "093514.500000", "093514.500000", "093514.500000", "093514.515000", "093514.515000", "093514.531000", "093514.531000", "093514.531000", "093514.531000", "093514.531000", "093514.531000", "093514.546000", "093514.546000", "093514.546000", "093514.546000", "093514.562000", "093514.562000", "093514.562000", "093514.562000", "093514.562000", "093534.500000", "093534.500000", "093534.500000", "093534.531000", "093534.546000", "093534.546000", "093534.562000", "093534.562000", "093534.562000", "093534.578000", "093534.578000", "093534.578000", "093534.578000", "093534.578000", "093534.593000", "093534.593000", "093534.593000", "093534.593000", "093534.593000", "093534.593000", "093554.500000", "093554.500000", "093554.500000", "093554.515000", "093554.515000", "093554.531000", "093554.531000", "093554.531000", "093554.546000", "093554.546000", "093554.546000", "093554.546000", "093554.546000", "093554.546000", "093554.546000", "093554.562000", "093554.562000", "093554.562000", "093554.562000", "093554.562000", "093614.500000", "093614.500000", "093614.500000", "093614.515000", "093614.531000", "093614.531000", "093614.531000", "093614.546000", "093614.546000", "093614.546000", "093614.546000", "093614.562000", "093614.562000", "093614.562000", "093614.562000", "093614.562000", "093614.562000", "093614.562000", "093614.578000", "093614.578000", "093634.500000", "093634.500000", "093634.500000", "093634.531000", "093634.531000", "093634.531000", "093634.531000", "093634.546000", "093634.546000", "093634.546000", "093634.546000", "093634.546000", "093634.546000", "093634.546000", "093634.546000", "093634.562000", "093634.562000", "093634.562000", "093634.562000", "093634.562000", "093654.500000", "093654.500000", "093654.500000", "093654.515000", "093654.515000", "093654.515000", "093654.515000", "093654.531000", "093654.531000", "093654.531000", "093654.531000", "093654.546000", "093654.546000", "093654.546000", "093654.546000", "093654.546000", "093654.546000", "093654.562000", "093654.562000", "093654.562000", "093714.859000", "093714.859000", "093714.859000", "093714.875000", "093714.875000", "093714.875000", "093714.875000", "093714.890000", "093714.890000", "093714.890000", "093714.890000", "093714.890000", "093714.890000", "093714.890000", "093714.906000", "093714.906000"],
      "InstanceNumber": [1, 2, 3, 4, 5, 6, 7, 8, 9, 10, 11, 12, 13, 14, 15, 16, 17, 18, 19, 20, 21, 22, 23, 24, 25, 26, 27, 28, 29, 30, 31, 32, 33, 34, 35, 36, 37, 38, 39, 40, 41, 42, 43, 44, 45, 46, 47, 48, 49, 50, 51, 52, 53, 54, 55, 56, 57, 58, 59, 60, 61, 62, 63, 64, 65, 66, 67, 68, 69, 70, 71, 72, 73, 74, 75, 76, 77, 78, 79, 80, 81, 82, 83, 84, 85, 86, 87, 88, 89, 90, 91, 92, 93, 94, 95, 96, 97, 98, 99, 100, 101, 102, 103, 104, 105, 106, 107, 108, 109, 110, 111, 112, 113, 114, 115, 116, 117, 118, 119, 120, 121, 122, 123, 124, 125, 126, 127, 128, 129, 130, 131, 132, 133, 134, 135, 136, 137, 138, 139, 140, 141, 142, 143, 144, 145, 146, 147, 148, 149, 150, 151, 152, 153, 154, 155, 156, 157, 158, 159, 160, 161, 162, 163, 164, 165, 166, 167, 168, 169, 170, 171, 172, 173, 174, 175, 176, 177, 178, 179, 180, 181, 182, 183, 184, 185, 186, 187, 188, 189, 190, 191, 192, 193, 194, 195, 196, 197, 198, 199, 200, 201, 202, 203, 204, 205, 206, 207, 208, 209, 210, 211, 212, 213, 214, 215, 216, 217, 218, 219, 220, 221, 222, 223, 224, 225, 226, 227, 228, 229, 230, 231, 232, 233, 234, 235, 236, 237, 238, 239, 240, 241, 242, 243, 244, 245, 246, 247, 248, 249, 250, 251, 252, 253, 254, 255, 256, 257, 258, 259, 260, 261, 262, 263, 264, 265, 266, 267, 268, 269, 270, 271, 272, 273, 274, 275, 276, 277, 278, 279, 280, 281, 282, 283, 284, 285, 286, 287, 288, 289, 290, 291, 292, 293, 294, 295, 296, 297, 298, 299, 300, 301, 302, 303, 304, 305, 306, 307, 308, 309, 310, 311, 312, 313, 314, 315, 316, 317, 318, 319, 320, 321, 322, 323, 324, 325, 326, 327, 328, 329, 330],
      "LargestImagePixelValue": [3000, 3047, 2913, 2875, 2936, 2921, 2916, 2922, 2900, 2914, 2929, 2958, 2901, 2927, 2923, 2937, 2993, 2932, 2925, 2881, 2911, 2969, 2913, 2911, 2962, 2951, 2972, 2941, 2913, 2908, 2965, 2939, 2919, 2937, 2915, 2916, 2953, 2911, 2885, 2921, 2881, 2925, 2933, 2917, 2895, 2925, 2965, 2935, 2887, 2920, 2935, 2903, 2928, 2917, 2956, 2923, 2930, 2944, 2912, 2973, 2903, 2915, 2937, 2912, 2937, 2954, 2934, 2961, 2948, 2900, 2905, 2911, 2898, 2911, 2910, 2964, 2961, 2928, 2956, 2930, 2962, 3016, 2972, 2930, 2915, 2921, 2970, 2936, 2909, 2935, 2999, 2957, 2959, 2898, 2941, 2941, 3019, 2961, 2921, 2918, 2960, 2988, 2976, 2944, 2968, 3001, 2969, 2969, 2933, 2926, 2990, 3005, 2972, 3000, 2966, 2994, 2966, 2922, 2929, 2985, 3017, 3013, 2971, 2974, 2997, 2990, 2953, 3007, 2949, 2958, 2982, 3031, 2941, 2970, 2985, 2961, 2963, 2960, 2973, 2940, 3013, 3030, 3007, 2970, 2957, 3010, 2956, 2997, 2999, 3018, 3010, 2972, 2978, 2990, 2986, 3020, 3070, 3012, 2974, 2994, 3023, 3041, 3009, 2998, 3001, 3081, 2984, 3011, 2995, 3033, 3024, 3022, 2983, 2983, 2986, 2968, 2952, 2980, 2916, 3017, 3003, 3009, 2985, 2952, 2967, 2948, 3015, 3001, 3009, 3005, 2948, 2970, 2945, 2928, 3010, 3038, 3018, 3013, 2983, 3000, 2982, 2992, 3011, 2962, 2979, 3004, 2991, 2927, 2975, 2928, 2981, 3002, 2917, 2965, 2997, 3052, 3056, 3036, 2986, 2983, 2990, 2955, 2929, 2940, 2917, 2980, 2955, 2920, 2944, 2999, 2996, 2985, 2933, 2958, 2968, 2930, 2987, 2985, 2988, 2971, 3033, 2989, 2950, 2995, 2965, 2976, 2946, 3007, 2953, 3018, 3090, 3001, 3041, 2967, 3031, 3038, 3009, 2978, 2998, 3070, 3008, 3003, 2975, 3016, 3010, 3027, 2968, 2971, 3022, 2976, 3001, 2984, 2973, 2980, 2974, 2947, 2971, 2961, 3003, 2992, 2939, 2966, 2939, 2965, 2962, 3001, 2978, 2946, 2909, 2992, 2973, 2909, 2955, 2905, 2930, 2986, 2933, 2934, 2963, 2948, 2949, 2964, 2947, 2955, 2941, 2932, 2954, 2985, 2923, 2953, 3007, 2967, 2999, 2934, 3006, 2989, 2945, 3003, 2938, 2972, 3007, 2976, 2993, 2946, 2961, 2942, 3025, 2950, 2973, 2965],
      "WindowCenter": [444.0, 444.0, 442.0, 441.0, 442.0, 441.0, 442.0, 441.0, 440.0, 441.0, 441.0, 442.0, 441.0, 442.0, 442.0, 442.0, 443.0, 443.0, 443.0, 443.0, 444.0, 444.0, 443.0, 442.0, 442.0, 442.0, 442.0, 442.0, 442.0, 443.0, 442.0, 442.0, 442.0, 441.0, 442.0, 442.0, 442.0, 441.0, 441.0, 441.0, 440.0, 441.0, 441.0, 441.0, 440.0, 441.0, 442.0, 442.0, 442.0, 442.0, 442.0, 442.0, 442.0, 442.0, 442.0, 441.0, 441.0, 442.0, 441.0, 442.0, 441.0, 441.0, 441.0, 441.0, 441.0, 441.0, 441.0, 442.0, 442.0, 441.0, 442.0, 442.0, 442.0, 442.0, 442.0, 442.0, 442.0, 442.0, 442.0, 442.0, 442.0, 443.0, 443.0, 443.0, 442.0, 442.0, 442.0, 441.0, 441.0, 441.0, 442.0, 442.0, 442.0, 441.0, 442.0, 441.0, 442.0, 442.0, 441.0, 442.0, 442.0, 442.0, 442.0, 442.0, 442.0, 443.0, 442.0, 442.0, 441.0, 441.0, 441.0, 442.0, 443.0, 443.0, 444.0, 444.0, 443.0, 443.0, 442.0, 442.0, 443.0, 443.0, 442.0, 442.0, 442.0, 443.0, 442.0, 442.0, 442.0, 442.0, 442.0, 443.0, 442.0, 442.0, 442.0, 442.0, 443.0, 444.0, 444.0, 444.0, 445.0, 444.0, 444.0, 443.0, 443.0, 443.0, 442.0, 443.0, 443.0, 443.0, 443.0, 442.0, 442.0, 443.0, 442.0, 442.0, 442.0, 442.0, 441.0, 442.0, 442.0, 442.0, 442.0, 443.0, 442.0, 443.0, 442.0, 443.0, 443.0, 444.0, 444.0, 445.0, 444.0, 444.0, 444.0, 443.0, 443.0, 444.0, 443.0, 445.0, 444.0, 444.0, 444.0, 444.0, 444.0, 443.0, 444.0, 443.0, 443.0, 443.0, 443.0, 444.0, 444.0, 443.0, 443.0, 443.0, 443.0, 443.0, 443.0, 443.0, 443.0, 442.0, 442.0, 441.0, 441.0, 441.0, 442.0, 441.0, 442.0, 441.0, 441.0, 442.0, 441.0, 442.0, 442.0, 443.0, 443.0, 443.0, 443.0, 444.0, 444.0, 444.0, 443.0, 443.0, 443.0, 443.0, 443.0, 442.0, 442.0, 442.0, 443.0, 444.0, 444.0, 444.0, 444.0, 443.0, 442.0, 442.0, 441.0, 442.0, 442.0, 443.0, 443.0, 443.0, 443.0, 443.0, 443.0, 443.0, 442.0, 443.0, 444.0, 443.0, 444.0, 443.0, 443.0, 442.0, 441.0, 441.0, 441.0, 442.0, 441.0, 441.0, 441.0, 441.0, 441.0, 441.0, 441.0, 442.0, 443.0, 443.0, 443.0, 443.0, 443.0, 443.0, 442.0, 441.0, 441.0, 441.0, 441.0, 441.0, 441.0, 441.0, 440.0, 441.0, 442.0, 443.0, 443.0, 442.0, 441.0, 442.0, 442.0, 441.0, 442.0, 441.0, 442.0, 442.0, 441.0, 441.0, 441.0, 441.0, 441.0, 441.0, 441.0, 441.0, 441.0, 441.0, 441.0, 441.0, 441.0, 442.0, 443.0, 443.0, 443.0, 442.0, 443.0, 442.0, 442.0, 443.0, 443.0, 443.0, 443.0, 442.0, 443.0, 442.0, 442.0, 442.0, 443.0, 441.0, 442.0, 442.0],
