{
  "AcquisitionMatrixPE": 104,
  "AcquisitionNumber": 1,
  "AcquisitionTime": "10:43:16.955000",
  "BandwidthPerPixelPhaseEncode": 43.054,
  "BaseResolution": 104,
  "CoilString": "C:E1_2",
  "ConversionSoftware": "dcm2niix",
  "ConversionSoftwareVersion": "v1.0.20191031",
  "DerivedVendorReportedEchoSpacing": 0.000669999,
  "DeviceSerialNumber": "18932",
  "DwellTime": 2.8e-06,
  "EchoTime": 0.02,
  "EffectiveEchoSpacing": 0.000223333,
  "FlipAngle": 30,
  "ImageComments": "Unaliased_MB2_PE2",
  "ImageOrientationPatientDICOM": [1, 2e-16, 0, -2e-16, 0.991671, -0.128796],
  "ImageType": [
    "ORIGINAL",
    "PRIMARY",
    "M",
    "MB",
    "ND",
    "MOSAIC"
],
  "ImagingFrequency": 297.229,
  "InPlanePhaseEncodingDirectionDICOM": "COL",
  "InstitutionAddress": "Richmond_Street_North_1151_London_409EF2_Ontario_CA_N6A_5B7",
  "InstitutionName": "Robarts_Reserch_Institute",
  "InstitutionalDepartmentName": "Department",
  "MRAcquisitionType": "2D",
  "MagneticFieldStrength": 6.98,
  "Manufacturer": "Siemens",
  "ManufacturersModelName": "Investigational_Device_7T",
  "Modality": "MR",
  "MultibandAccelerationFactor": 2,
  "ParallelReductionFactorInPlane": 3,
  "PartialFourier": 0.875,
  "PatientPosition": "HFS",
  "PercentPhaseFOV": 100,
  "PhaseEncodingDirection": "j-",
  "PhaseEncodingSteps": 91,
  "PhaseResolution": 1,
  "PixelBandwidth": 1717,
  "ProcedureStepDescription": "Diedrichsen_SeqRep4",
  "ProtocolName": "mbep2d_bold_mb2_p3_AP_2iso",
  "PulseSequenceDetails": "%CustomerSeq%_cmrr_mbep2d_bold",
  "ReceiveCoilName": "CFMM_8Tx32Rx",
  "ReconMatrixPE": 104,
  "RefLinesPE": 36,
  "RepetitionTime": 1,
  "ScanOptions": "PFP_FS",
  "ScanningSequence": "EP",
  "SequenceName": "epfid2d1_104",
  "SequenceVariant": "SK_SS",
  "SeriesDescription": "mbep2d_bold_mb2_p3_AP_2iso",
  "SeriesNumber": 36,
  "ShimSetting": [-14, 2022, 42, 1483, 7, -60, 221, -154],
  "SliceThickness": 2,
  "SliceTiming": [0, 0.2275, 0.455, 0.685, 0.9125, 0.1375, 0.365, 0.5925, 0.82, 0.045, 0.2725, 0.5025, 0.73, 0.9575, 0.1825, 0.41, 0.6375, 0.8675, 0.09, 0.32, 0.5475, 0.775, 0, 0.2275, 0.455, 0.685, 0.9125, 0.1375, 0.365, 0.5925, 0.82, 0.045, 0.2725, 0.5025, 0.73, 0.9575, 0.1825, 0.41, 0.6375, 0.8675, 0.09, 0.32, 0.5475, 0.775],
  "SoftwareVersions": "syngo_MR_B17",
  "SpacingBetweenSlices": 2,
  "StationName": "MASTER",
  "TaskName": "dsp",
  "TotalReadoutTime": 0.0230033,
  "TxRefAmp": 120,
  "dcmmeta_affine": [
    [-2.0, -4.000000067449534e-16, 5.1518237917901055e-17, 105.4527816772461],
    [-4.000000067449534e-16, 1.9833422899246216, -0.257591187953949, -113.77422332763672],
    [0.0, 0.257591187953949, 1.9833422899246216, -50.01731491088867],
    [0.0, 0.0, 0.0, 1.0]
],
  "dcmmeta_reorient_transform": [
    [0.0, -1.0, 0.0, 103.0],
    [1.0, 0.0, 0.0, 0.0],
    [0.0, 0.0, 1.0, 0.0],
    [0.0, 0.0, 0.0, 1.0]
],
  "dcmmeta_shape": [104, 104, 44, 330],
  "dcmmeta_slice_dim": 2,
  "dcmmeta_version": 0.6,
  "global": {
    "const": {
      "AcquisitionMatrix": [104, 0, 0, 104],
      "AngioFlag": "N",
      "BitsAllocated": 16,
      "BitsStored": 12,
      "Columns": 728,
      "EchoNumbers": 1,
      "EchoTime": 20.0,
      "EchoTrainLength": 1,
      "FlipAngle": 30.0,
      "HighBit": 11,
      "ImageOrientationPatient": [1.0, 2e-16, 0.0, -2e-16, 0.99167116265211, -0.1287955945062],
      "ImagePositionPatient": [-729.45278453827, -709.31284237265, 56.883027700431],
      "ImageType": [
        "ORIGINAL",
        "PRIMARY",
        "M",
        "MB",
        "ND",
        "MOSAIC"
],
      "ImagedNucleus": "1H",
      "ImagingFrequency": 297.228871,
      "InPlanePhaseEncodingDirection": "COL",
      "MRAcquisitionType": "2D",
      "MagneticFieldStrength": 6.98,
      "Manufacturer": "SIEMENS",
      "ManufacturerModelName": "Investigational_Device_7T",
      "Modality": "MR",
      "NumberOfAverages": 1.0,
      "NumberOfPhaseEncodingSteps": 91,
      "PercentPhaseFieldOfView": 100.0,
      "PercentSampling": 100.0,
      "PerformedProcedureStepStartTime": "090559.843000",
      "PhotometricInterpretation": "MONOCHROME2",
      "PixelBandwidth": 1717.0,
      "PixelRepresentation": 0,
      "PixelSpacing": [2.0, 2.0],
      "ProtocolName": "mbep2d_bold_mb2_p3_AP 2iso",
      "RepetitionTime": 1000.0,
      "Rows": 728,
      "SAR": 0.0,
      "SamplesPerPixel": 1,
      "ScanOptions": [
        "PFP",
        "FS"
],
      "ScanningSequence": "EP",
      "SequenceName": "epfid2d1_104",
      "SequenceVariant": [
        "SK",
        "SS"
],
      "SeriesDescription": "mbep2d_bold_mb2_p3_AP 2iso",
      "SeriesNumber": 36,
      "SeriesTime": "104347.953000",
      "SliceLocation": -34.947111009424,
      "SliceThickness": 2.0,
      "SmallestImagePixelValue": 0,
      "SoftwareVersions": "syngo MR B17",
      "SpacingBetweenSlices": 1.9999999584949,
      "SpecificCharacterSet": "ISO_IR 100",
      "StudyID": "1",
      "StudyTime": "090559.796000",
      "TransmitCoilName": "CFMM_8Tx32Rx",
      "VariableFlipAngleFlag": "N",
      "WindowCenterWidthExplanation": "Algo1",
      "dBdt": 0.0},
    "slices": {}
  },
  "time": {
    "samples": {
      "AcquisitionNumber": [1, 2, 3, 4, 5, 6, 7, 8, 9, 10, 11, 12, 13, 14, 15, 16, 17, 18, 19, 20, 21, 22, 23, 24, 25, 26, 27, 28, 29, 30, 31, 32, 33, 34, 35, 36, 37, 38, 39, 40, 41, 42, 43, 44, 45, 46, 47, 48, 49, 50, 51, 52, 53, 54, 55, 56, 57, 58, 59, 60, 61, 62, 63, 64, 65, 66, 67, 68, 69, 70, 71, 72, 73, 74, 75, 76, 77, 78, 79, 80, 81, 82, 83, 84, 85, 86, 87, 88, 89, 90, 91, 92, 93, 94, 95, 96, 97, 98, 99, 100, 101, 102, 103, 104, 105, 106, 107, 108, 109, 110, 111, 112, 113, 114, 115, 116, 117, 118, 119, 120, 121, 122, 123, 124, 125, 126, 127, 128, 129, 130, 131, 132, 133, 134, 135, 136, 137, 138, 139, 140, 141, 142, 143, 144, 145, 146, 147, 148, 149, 150, 151, 152, 153, 154, 155, 156, 157, 158, 159, 160, 161, 162, 163, 164, 165, 166, 167, 168, 169, 170, 171, 172, 173, 174, 175, 176, 177, 178, 179, 180, 181, 182, 183, 184, 185, 186, 187, 188, 189, 190, 191, 192, 193, 194, 195, 196, 197, 198, 199, 200, 201, 202, 203, 204, 205, 206, 207, 208, 209, 210, 211, 212, 213, 214, 215, 216, 217, 218, 219, 220, 221, 222, 223, 224, 225, 226, 227, 228, 229, 230, 231, 232, 233, 234, 235, 236, 237, 238, 239, 240, 241, 242, 243, 244, 245, 246, 247, 248, 249, 250, 251, 252, 253, 254, 255, 256, 257, 258, 259, 260, 261, 262, 263, 264, 265, 266, 267, 268, 269, 270, 271, 272, 273, 274, 275, 276, 277, 278, 279, 280, 281, 282, 283, 284, 285, 286, 287, 288, 289, 290, 291, 292, 293, 294, 295, 296, 297, 298, 299, 300, 301, 302, 303, 304, 305, 306, 307, 308, 309, 310, 311, 312, 313, 314, 315, 316, 317, 318, 319, 320, 321, 322, 323, 324, 325, 326, 327, 328, 329, 330],
      "AcquisitionTime": ["104316.955000", "104317.957500", "104318.962500", "104319.967500", "104320.970000", "104321.975000", "104322.977500", "104323.982500", "104324.987500", "104325.990000", "104326.995000", "104328.000000", "104329.002500", "104330.007500", "104331.010000", "104332.015000", "104333.020000", "104334.022500", "104335.027500", "104336.030000", "104337.035000", "104338.040000", "104339.042500", "104340.047500", "104341.050000", "104342.055000", "104343.060000", "104344.062500", "104345.067500", "104346.070000", "104347.075000", "104348.080000", "104349.082500", "104350.087500", "104351.090000", "104352.095000", "104353.100000", "104354.102500", "104355.107500", "104356.112500", "104357.115000", "104358.120000", "104359.122500", "104400.127500", "104401.132500", "104402.135000", "104403.140000", "104404.142500", "104405.147500", "104406.152500", "104407.155000", "104408.160000", "104409.162500", "104410.167500", "104411.172500", "104412.175000", "104413.180000", "104414.182500", "104415.187500", "104416.192500", "104417.195000", "104418.200000", "104419.202500", "104420.207500", "104421.212500", "104422.215000", "104423.220000", "104424.222500", "104425.227500", "104426.232500", "104427.235000", "104428.240000", "104429.245000", "104430.247500", "104431.252500", "104432.255000", "104433.260000", "104434.265000", "104435.267500", "104436.272500", "104437.275000", "104438.280000", "104439.285000", "104440.287500", "104441.292500", "104442.295000", "104443.300000", "104444.305000", "104445.307500", "104446.312500", "104447.315000", "104448.320000", "104449.325000", "104450.327500", "104451.332500", "104452.335000", "104453.340000", "104454.345000", "104455.347500", "104456.352500", "104457.355000", "104458.360000", "104459.365000", "104500.367500", "104501.372500", "104502.377500", "104503.380000", "104504.385000", "104505.387500", "104506.392500", "104507.397500", "104508.400000", "104509.405000", "104510.407500", "104511.412500", "104512.417500", "104513.420000", "104514.425000", "104515.427500", "104516.432500", "104517.437500", "104518.440000", "104519.445000", "104520.447500", "104521.452500", "104522.457500", "104523.460000", "104524.465000", "104525.467500", "104526.472500", "104527.477500", "104528.480000", "104529.485000", "104530.490000", "104531.492500", "104532.497500", "104533.500000", "104534.505000", "104535.510000", "104536.512500", "104537.517500", "104538.520000", "104539.525000", "104540.530000", "104541.532500", "104542.537500", "104543.540000", "104544.545000", "104545.550000", "104546.552500", "104547.557500", "104548.560000", "104549.565000", "104550.570000", "104551.572500", "104552.577500", "104553.580000", "104554.585000", "104555.590000", "104556.592500", "104557.597500", "104558.600000", "104559.605000", "104600.610000", "104601.612500", "104602.617500", "104603.622500", "104604.625000", "104605.630000", "104606.632500", "104607.637500", "104608.642500", "104609.645000", "104610.650000", "104611.652500", "104612.657500", "104613.662500", "104614.665000", "104615.670000", "104616.672500", "104617.677500", "104618.682500", "104619.685000", "104620.690000", "104621.692500", "104622.697500", "104623.702500", "104624.705000", "104625.710000", "104626.712500", "104627.717500", "104628.722500", "104629.725000", "104630.730000", "104631.732500", "104632.737500", "104633.742500", "104634.745000", "104635.750000", "104636.755000", "104637.757500", "104638.762500", "104639.765000", "104640.770000", "104641.775000", "104642.777500", "104643.782500", "104644.785000", "104645.790000", "104646.795000", "104647.797500", "104648.802500", "104649.805000", "104650.810000", "104651.815000", "104652.817500", "104653.822500", "104654.825000", "104655.830000", "104656.835000", "104657.837500", "104658.842500", "104659.845000", "104700.850000", "104701.855000", "104702.857500", "104703.862500", "104704.867500", "104705.870000", "104706.875000", "104707.877500", "104708.882500", "104709.887500", "104710.890000", "104711.895000", "104712.897500", "104713.902500", "104714.907500", "104715.910000", "104716.915000", "104717.917500", "104718.922500", "104719.927500", "104720.930000", "104721.935000", "104722.937500", "104723.942500", "104724.947500", "104725.950000", "104726.955000", "104727.957500", "104728.962500", "104729.967500", "104730.970000", "104731.975000", "104732.977500", "104733.982500", "104734.987500", "104735.990000", "104736.995000", "104738.000000", "104739.002500", "104740.007500", "104741.010000", "104742.015000", "104743.020000", "104744.022500", "104745.027500", "104746.030000", "104747.035000", "104748.040000", "104749.042500", "104750.047500", "104751.050000", "104752.055000", "104753.060000", "104754.062500", "104755.067500", "104756.070000", "104757.075000", "104758.080000", "104759.082500", "104800.087500", "104801.090000", "104802.095000", "104803.100000", "104804.102500", "104805.107500", "104806.112500", "104807.115000", "104808.120000", "104809.122500", "104810.127500", "104811.132500", "104812.135000", "104813.140000", "104814.142500", "104815.147500", "104816.152500", "104817.155000", "104818.160000", "104819.162500", "104820.167500", "104821.172500", "104822.175000", "104823.180000", "104824.182500", "104825.187500", "104826.192500", "104827.195000", "104828.200000", "104829.202500", "104830.207500", "104831.212500", "104832.215000", "104833.220000", "104834.222500", "104835.227500", "104836.232500", "104837.235000", "104838.240000", "104839.245000", "104840.247500", "104841.252500", "104842.255000", "104843.260000", "104844.265000", "104845.267500", "104846.272500", "104847.275000"],
      "ContentTime": ["104347.953000", "104347.968000", "104347.968000", "104347.968000", "104347.968000", "104347.968000", "104347.968000", "104347.984000", "104347.984000", "104347.984000", "104347.984000", "104347.984000", "104347.984000", "104347.984000", "104348.000000", "104348.000000", "104348.000000", "104348.000000", "104348.000000", "104348.000000", "104348.000000", "104348.015000", "104348.015000", "104348.015000", "104348.015000", "104348.015000", "104348.015000", "104348.015000", "104407.921000", "104407.921000", "104407.921000", "104407.937000", "104407.937000", "104407.937000", "104407.937000", "104407.937000", "104407.937000", "104407.937000", "104407.937000", "104407.953000", "104407.953000", "104407.953000", "104407.953000", "104407.953000", "104407.953000", "104407.953000", "104407.968000", "104407.968000", "104427.921000", "104427.921000", "104427.921000", "104427.921000", "104427.937000", "104427.937000", "104427.937000", "104427.937000", "104427.937000", "104427.937000", "104427.953000", "104427.953000", "104427.953000", "104427.953000", "104427.953000", "104427.953000", "104427.953000", "104427.968000", "104427.968000", "104427.968000", "104447.921000", "104447.921000", "104447.921000", "104447.921000", "104447.937000", "104447.937000", "104447.937000", "104447.937000", "104447.937000", "104447.937000", "104447.937000", "104447.953000", "104447.953000", "104447.953000", "104447.953000", "104447.953000", "104447.953000", "104447.953000", "104447.968000", "104447.968000", "104507.921000", "104507.921000", "104507.921000", "104507.921000", "104507.937000", "104507.937000", "104507.937000", "104507.937000", "104507.937000", "104507.937000", "104507.937000", "104507.937000", "104507.953000", "104507.953000", "104507.953000", "104507.953000", "104507.953000", "104507.953000", "104507.953000", "104507.968000", "104527.921000", "104527.921000", "104527.921000", "104527.921000", "104527.937000", "104527.937000", "104527.937000", "104527.937000", "104527.953000", "104527.953000", "104527.953000", "104527.953000", "104527.953000", "104527.953000", "104527.953000", "104527.953000", "104527.968000", "104527.968000", "104527.968000", "104527.968000", "104547.921000", "104547.921000", "104547.921000", "104547.921000", "104547.937000", "104547.937000", "104547.937000", "104547.937000", "104547.937000", "104547.937000", "104547.953000", "104547.953000", "104547.953000", "104547.953000", "104547.953000", "104547.953000", "104547.953000", "104547.953000", "104547.968000", "104547.968000", "104607.921000", "104607.921000", "104607.921000", "104607.921000", "104607.937000", "104607.937000", "104607.937000", "104607.937000", "104607.953000", "104607.953000", "104607.953000", "104607.953000", "104607.953000", "104607.953000", "104607.953000", "104607.968000", "104607.968000", "104607.968000", "104607.968000", "104607.984000", "104627.921000", "104627.921000", "104627.921000", "104627.921000", "104627.937000", "104627.937000", "104627.937000", "104627.937000", "104627.937000", "104627.937000", "104627.953000", "104627.953000", "104627.953000", "104627.953000", "104627.953000", "104627.953000", "104627.953000", "104627.968000", "104627.968000", "104627.968000", "104647.921000", "104647.921000", "104647.921000", "104647.921000", "104647.937000", "104647.937000", "104647.937000", "104647.937000", "104647.937000", "104647.937000", "104647.953000", "104647.953000", "104647.953000", "104647.953000", "104647.953000", "104647.953000", "104647.968000", "104647.968000", "104647.968000", "104647.968000", "104707.921000", "104707.921000", "104707.921000", "104707.921000", "104707.937000", "104707.937000", "104707.937000", "104707.937000", "104707.937000", "104707.937000", "104707.937000", "104707.937000", "104707.953000", "104707.953000", "104707.953000", "104707.953000", "104707.953000", "104707.953000", "104707.953000", "104707.968000", "104727.921000", "104727.921000", "104727.921000", "104727.921000", "104727.937000", "104727.937000", "104727.937000", "104727.937000", "104727.937000", "104727.937000", "104727.937000", "104727.953000", "104727.953000", "104727.953000", "104727.953000", "104727.953000", "104727.953000", "104727.953000", "104727.968000", "104727.968000", "104747.921000", "104747.921000", "104747.921000", "104747.921000", "104747.937000", "104747.937000", "104747.937000", "104747.937000", "104747.937000", "104747.937000", "104747.937000", "104747.937000", "104747.953000", "104747.953000", "104747.953000", "104747.953000", "104747.953000", "104747.953000", "104747.968000", "104747.968000", "104807.921000", "104807.921000", "104807.921000", "104807.921000", "104807.937000", "104807.937000", "104807.937000", "104807.937000", "104807.937000", "104807.937000", "104807.937000", "104807.953000", "104807.953000", "104807.953000", "104807.953000", "104807.953000", "104807.953000", "104807.953000", "104807.968000", "104807.968000", "104827.921000", "104827.921000", "104827.921000", "104827.921000", "104827.937000", "104827.937000", "104827.937000", "104827.937000", "104827.937000", "104827.937000", "104827.937000", "104827.953000", "104827.953000", "104827.953000", "104827.953000", "104827.953000", "104827.953000", "104827.968000", "104827.968000", "104827.968000", "104847.921000", "104847.921000", "104847.921000", "104847.921000", "104847.937000", "104847.937000", "104847.937000", "104847.937000", "104847.937000", "104847.937000", "104847.953000", "104847.953000", "104847.953000", "104847.953000", "104847.953000", "104847.953000", "104847.953000", "104847.968000", "104847.968000", "104847.968000", "104854.015000", "104854.015000"],
      "InstanceCreationTime": ["104347.953000", "104347.968000", "104347.968000", "104347.968000", "104347.968000", "104347.968000", "104347.968000", "104347.984000", "104347.984000", "104347.984000", "104347.984000", "104347.984000", "104347.984000", "104347.984000", "104348.000000", "104348.000000", "104348.000000", "104348.000000", "104348.000000", "104348.000000", "104348.000000", "104348.015000", "104348.015000", "104348.015000", "104348.015000", "104348.015000", "104348.015000", "104348.015000", "104407.921000", "104407.921000", "104407.921000", "104407.937000", "104407.937000", "104407.937000", "104407.937000", "104407.937000", "104407.937000", "104407.937000", "104407.937000", "104407.953000", "104407.953000", "104407.953000", "104407.953000", "104407.953000", "104407.953000", "104407.953000", "104407.968000", "104407.968000", "104427.921000", "104427.921000", "104427.921000", "104427.921000", "104427.937000", "104427.937000", "104427.937000", "104427.937000", "104427.937000", "104427.937000", "104427.953000", "104427.953000", "104427.953000", "104427.953000", "104427.953000", "104427.953000", "104427.953000", "104427.968000", "104427.968000", "104427.968000", "104447.921000", "104447.921000", "104447.921000", "104447.921000", "104447.937000", "104447.937000", "104447.937000", "104447.937000", "104447.937000", "104447.937000", "104447.937000", "104447.953000", "104447.953000", "104447.953000", "104447.953000", "104447.953000", "104447.953000", "104447.953000", "104447.968000", "104447.968000", "104507.921000", "104507.921000", "104507.921000", "104507.921000", "104507.937000", "104507.937000", "104507.937000", "104507.937000", "104507.937000", "104507.937000", "104507.937000", "104507.937000", "104507.953000", "104507.953000", "104507.953000", "104507.953000", "104507.953000", "104507.953000", "104507.953000", "104507.968000", "104527.921000", "104527.921000", "104527.921000", "104527.921000", "104527.937000", "104527.937000", "104527.937000", "104527.937000", "104527.953000", "104527.953000", "104527.953000", "104527.953000", "104527.953000", "104527.953000", "104527.953000", "104527.953000", "104527.968000", "104527.968000", "104527.968000", "104527.968000", "104547.921000", "104547.921000", "104547.921000", "104547.921000", "104547.937000", "104547.937000", "104547.937000", "104547.937000", "104547.937000", "104547.937000", "104547.953000", "104547.953000", "104547.953000", "104547.953000", "104547.953000", "104547.953000", "104547.953000", "104547.953000", "104547.968000", "104547.968000", "104607.921000", "104607.921000", "104607.921000", "104607.921000", "104607.937000", "104607.937000", "104607.937000", "104607.937000", "104607.953000", "104607.953000", "104607.953000", "104607.953000", "104607.953000", "104607.953000", "104607.953000", "104607.968000", "104607.968000", "104607.968000", "104607.968000", "104607.984000", "104627.921000", "104627.921000", "104627.921000", "104627.921000", "104627.937000", "104627.937000", "104627.937000", "104627.937000", "104627.937000", "104627.937000", "104627.953000", "104627.953000", "104627.953000", "104627.953000", "104627.953000", "104627.953000", "104627.953000", "104627.968000", "104627.968000", "104627.968000", "104647.921000", "104647.921000", "104647.921000", "104647.921000", "104647.937000", "104647.937000", "104647.937000", "104647.937000", "104647.937000", "104647.937000", "104647.953000", "104647.953000", "104647.953000", "104647.953000", "104647.953000", "104647.953000", "104647.968000", "104647.968000", "104647.968000", "104647.968000", "104707.921000", "104707.921000", "104707.921000", "104707.921000", "104707.937000", "104707.937000", "104707.937000", "104707.937000", "104707.937000", "104707.937000", "104707.937000", "104707.937000", "104707.953000", "104707.953000", "104707.953000", "104707.953000", "104707.953000", "104707.953000", "104707.953000", "104707.968000", "104727.921000", "104727.921000", "104727.921000", "104727.921000", "104727.937000", "104727.937000", "104727.937000", "104727.937000", "104727.937000", "104727.937000", "104727.937000", "104727.953000", "104727.953000", "104727.953000", "104727.953000", "104727.953000", "104727.953000", "104727.953000", "104727.968000", "104727.968000", "104747.921000", "104747.921000", "104747.921000", "104747.921000", "104747.937000", "104747.937000", "104747.937000", "104747.937000", "104747.937000", "104747.937000", "104747.937000", "104747.937000", "104747.953000", "104747.953000", "104747.953000", "104747.953000", "104747.953000", "104747.953000", "104747.968000", "104747.968000", "104807.921000", "104807.921000", "104807.921000", "104807.921000", "104807.937000", "104807.937000", "104807.937000", "104807.937000", "104807.937000", "104807.937000", "104807.937000", "104807.953000", "104807.953000", "104807.953000", "104807.953000", "104807.953000", "104807.953000", "104807.953000", "104807.968000", "104807.968000", "104827.921000", "104827.921000", "104827.921000", "104827.921000", "104827.937000", "104827.937000", "104827.937000", "104827.937000", "104827.937000", "104827.937000", "104827.937000", "104827.953000", "104827.953000", "104827.953000", "104827.953000", "104827.953000", "104827.953000", "104827.968000", "104827.968000", "104827.968000", "104847.921000", "104847.921000", "104847.921000", "104847.921000", "104847.937000", "104847.937000", "104847.937000", "104847.937000", "104847.937000", "104847.937000", "104847.953000", "104847.953000", "104847.953000", "104847.953000", "104847.953000", "104847.953000", "104847.953000", "104847.968000", "104847.968000", "104847.968000", "104854.015000", "104854.015000"],
      "InstanceNumber": [1, 2, 3, 4, 5, 6, 7, 8, 9, 10, 11, 12, 13, 14, 15, 16, 17, 18, 19, 20, 21, 22, 23, 24, 25, 26, 27, 28, 29, 30, 31, 32, 33, 34, 35, 36, 37, 38, 39, 40, 41, 42, 43, 44, 45, 46, 47, 48, 49, 50, 51, 52, 53, 54, 55, 56, 57, 58, 59, 60, 61, 62, 63, 64, 65, 66, 67, 68, 69, 70, 71, 72, 73, 74, 75, 76, 77, 78, 79, 80, 81, 82, 83, 84, 85, 86, 87, 88, 89, 90, 91, 92, 93, 94, 95, 96, 97, 98, 99, 100, 101, 102, 103, 104, 105, 106, 107, 108, 109, 110, 111, 112, 113, 114, 115, 116, 117, 118, 119, 120, 121, 122, 123, 124, 125, 126, 127, 128, 129, 130, 131, 132, 133, 134, 135, 136, 137, 138, 139, 140, 141, 142, 143, 144, 145, 146, 147, 148, 149, 150, 151, 152, 153, 154, 155, 156, 157, 158, 159, 160, 161, 162, 163, 164, 165, 166, 167, 168, 169, 170, 171, 172, 173, 174, 175, 176, 177, 178, 179, 180, 181, 182, 183, 184, 185, 186, 187, 188, 189, 190, 191, 192, 193, 194, 195, 196, 197, 198, 199, 200, 201, 202, 203, 204, 205, 206, 207, 208, 209, 210, 211, 212, 213, 214, 215, 216, 217, 218, 219, 220, 221, 222, 223, 224, 225, 226, 227, 228, 229, 230, 231, 232, 233, 234, 235, 236, 237, 238, 239, 240, 241, 242, 243, 244, 245, 246, 247, 248, 249, 250, 251, 252, 253, 254, 255, 256, 257, 258, 259, 260, 261, 262, 263, 264, 265, 266, 267, 268, 269, 270, 271, 272, 273, 274, 275, 276, 277, 278, 279, 280, 281, 282, 283, 284, 285, 286, 287, 288, 289, 290, 291, 292, 293, 294, 295, 296, 297, 298, 299, 300, 301, 302, 303, 304, 305, 306, 307, 308, 309, 310, 311, 312, 313, 314, 315, 316, 317, 318, 319, 320, 321, 322, 323, 324, 325, 326, 327, 328, 329, 330],
      "LargestImagePixelValue": [2593, 2474, 2520, 2453, 2484, 2425, 2526, 2560, 2348, 2485, 2475, 2491, 2401, 2382, 2432, 2415, 2451, 2534, 2524, 2436, 2422, 2471, 2415, 2472, 2483, 2430, 2481, 2440, 2378, 2496, 2583, 2522, 2480, 2492, 2465, 2509, 2406, 2421, 2372, 2374, 2432, 2387, 2438, 2497, 2379, 2312, 2385, 2410, 2415, 2449, 2580, 2437, 2427, 2446, 2450, 2463, 2401, 2431, 2363, 2336, 2357, 2428, 2382, 2514, 2443, 2394, 2381, 2395, 2553, 2406, 2385, 2469, 2428, 2489, 2373, 2462, 2386, 2420, 2443, 2417, 2495, 2357, 2439, 2434, 2431, 2390, 2424, 2372, 2475, 2450, 2482, 2395, 2397, 2426, 2404, 2541, 2389, 2412, 2404, 2385, 2463, 2438, 2429, 2452, 2469, 2409, 2410, 2416, 2372, 2475, 2376, 2401, 2421, 2405, 2481, 2374, 2416, 2398, 2387, 2446, 2353, 2485, 2451, 2426, 2428, 2403, 2424, 2535, 2305, 2362, 2398, 2420, 2496, 2388, 2454, 2464, 2368, 2492, 2443, 2493, 2429, 2461, 2323, 2377, 2420, 2432, 2409, 2409, 2447, 2372, 2411, 2446, 2468, 2369, 2465, 2499, 2414, 2408, 2449, 2489, 2368, 2446, 2351, 2445, 2468, 2521, 2455, 2385, 2481, 2432, 2360, 2442, 2405, 2489, 2404, 2410, 2561, 2412, 2509, 2457, 2411, 2457, 2419, 2399, 2395, 2354, 2407, 2364, 2483, 2475, 2442, 2409, 2408, 2331, 2429, 2394, 2333, 2413, 2393, 2428, 2335, 2355, 2426, 2433, 2485, 2422, 2360, 2383, 2367, 2360, 2472, 2509, 2396, 2406, 2386, 2354, 2515, 2344, 2414, 2428, 2467, 2349, 2482, 2476, 2467, 2383, 2430, 2371, 2418, 2338, 2419, 2451, 2353, 2520, 2431, 2490, 2469, 2417, 2372, 2378, 2441, 2508, 2468, 2436, 2502, 2439, 2376, 2454, 2412, 2518, 2439, 2520, 2378, 2358, 2303, 2301, 2360, 2265, 2268, 2257, 2308, 2283, 2244, 2288, 2260, 2272, 2218, 2328, 2317, 2421, 2345, 2341, 2412, 2368, 2353, 2420, 2327, 2349, 2352, 2475, 2405, 2506, 2403, 2440, 2394, 2452, 2472, 2347, 2387, 2414, 2419, 2387, 2419, 2407, 2430, 2406, 2394, 2354, 2391, 2388, 2437, 2376, 2445, 2388, 2390, 2375, 2401, 2508, 2444, 2384, 2397, 2429, 2441, 2418, 2432, 2374, 2427, 2412, 2400, 2428, 2412, 2352, 2426, 2407, 2367, 2405, 2430, 2398, 2406, 2489],
      "WindowCenter": [467.0, 465.0, 466.0, 465.0, 465.0, 464.0, 464.0, 465.0, 462.0, 466.0, 467.0, 467.0, 466.0, 466.0, 467.0, 466.0, 467.0, 468.0, 467.0, 466.0, 466.0, 466.0, 465.0, 465.0, 464.0, 464.0, 464.0, 463.0, 464.0, 466.0, 466.0, 465.0, 464.0, 464.0, 463.0, 464.0, 462.0, 463.0, 462.0, 462.0, 463.0, 463.0, 464.0, 465.0, 464.0, 465.0, 468.0, 469.0, 470.0, 469.0, 470.0, 466.0, 465.0, 465.0, 467.0, 466.0, 465.0, 466.0, 465.0, 464.0, 464.0, 464.0, 464.0, 466.0, 465.0, 465.0, 465.0, 465.0, 467.0, 465.0, 464.0, 465.0, 465.0, 466.0, 465.0, 467.0, 466.0, 467.0, 467.0, 466.0, 467.0, 464.0, 465.0, 466.0, 465.0, 465.0, 465.0, 465.0, 467.0, 466.0, 466.0, 465.0, 464.0, 464.0, 463.0, 465.0, 463.0, 464.0, 464.0, 464.0, 466.0, 467.0, 466.0, 467.0, 466.0, 465.0, 465.0, 465.0, 466.0, 468.0, 466.0, 465.0, 465.0, 464.0, 466.0, 465.0, 467.0, 467.0, 466.0, 467.0, 466.0, 467.0, 466.0, 466.0, 467.0, 467.0, 466.0, 467.0, 463.0, 464.0, 465.0, 465.0, 467.0, 464.0, 466.0, 466.0, 464.0, 466.0, 465.0, 465.0, 464.0, 465.0, 464.0, 466.0, 467.0, 467.0, 466.0, 466.0, 466.0, 466.0, 467.0, 468.0, 469.0, 467.0, 467.0, 468.0, 465.0, 465.0, 465.0, 466.0, 464.0, 465.0, 464.0, 465.0, 465.0, 466.0, 464.0, 464.0, 465.0, 465.0, 463.0, 465.0, 463.0, 465.0, 463.0, 464.0, 466.0, 465.0, 466.0, 465.0, 465.0, 466.0, 465.0, 465.0, 465.0, 464.0, 464.0, 463.0, 465.0, 466.0, 465.0, 465.0, 465.0, 465.0, 467.0, 467.0, 466.0, 468.0, 468.0, 468.0, 466.0, 465.0, 466.0, 467.0, 467.0, 466.0, 466.0, 466.0, 467.0, 468.0, 469.0, 469.0, 466.0, 466.0, 465.0, 464.0, 466.0, 463.0, 465.0, 467.0, 469.0, 467.0, 468.0, 467.0, 466.0, 464.0, 465.0, 463.0, 464.0, 464.0, 465.0, 466.0, 464.0, 467.0, 465.0, 466.0, 464.0, 464.0, 463.0, 463.0, 465.0, 466.0, 466.0, 466.0, 467.0, 466.0, 466.0, 467.0, 467.0, 468.0, 467.0, 468.0, 465.0, 466.0, 463.0, 463.0, 464.0, 463.0, 462.0, 462.0, 462.0, 462.0, 461.0, 460.0, 459.0, 459.0, 458.0, 461.0, 461.0, 463.0, 461.0, 462.0, 463.0, 462.0, 462.0, 463.0, 462.0, 463.0, 464.0, 468.0, 467.0, 469.0, 468.0, 467.0, 466.0, 467.0, 467.0, 465.0, 466.0, 468.0, 468.0, 467.0, 467.0, 466.0, 467.0, 466.0, 466.0, 464.0, 465.0, 466.0, 467.0, 466.0, 466.0, 465.0, 465.0, 465.0, 465.0, 467.0, 466.0, 466.0, 467.0, 467.0, 467.0, 466.0, 467.0, 466.0, 466.0, 467.0, 467.0, 467.0, 466.0, 465.0, 465.0, 466.0, 465.0, 466.0, 466.0, 466.0, 466.0, 467.0],
