{
  "AcquisitionMatrixPE": 104,
  "AcquisitionNumber": 1,
  "AcquisitionTime": "09:24:19.987500",
  "BandwidthPerPixelPhaseEncode": 43.054,
  "BaseResolution": 104,
  "CoilString": "C:E1_2",
  "ConversionSoftware": "dcm2niix",
  "ConversionSoftwareVersion": "v1.0.20191031",
  "DerivedVendorReportedEchoSpacing": 0.000669999,
  "DeviceSerialNumber": "18932",
  "DwellTime": 2.8e-06,
  "EchoTime": 0.02,
  "EffectiveEchoSpacing": 0.000223333,
  "FlipAngle": 30,
  "ImageComments": "Unaliased_MB2_PE2",
  "ImageOrientationPatientDICOM": [1, 2e-16, 0, -2e-16, 0.991671, -0.128796],
  "ImageType": [
    "ORIGINAL",
    "PRIMARY",
    "M",
    "MB",
    "ND",
    "MOSAIC"
],
  "ImagingFrequency": 297.229,
  "InPlanePhaseEncodingDirectionDICOM": "COL",
  "InstitutionAddress": "Richmond_Street_North_1151_London_409EF2_Ontario_CA_N6A_5B7",
  "InstitutionName": "Robarts_Reserch_Institute",
  "InstitutionalDepartmentName": "Department",
  "MRAcquisitionType": "2D",
  "MagneticFieldStrength": 6.98,
  "Manufacturer": "Siemens",
  "ManufacturersModelName": "Investigational_Device_7T",
  "Modality": "MR",
  "MultibandAccelerationFactor": 2,
  "ParallelReductionFactorInPlane": 3,
  "PartialFourier": 0.875,
  "PatientPosition": "HFS",
  "PercentPhaseFOV": 100,
  "PhaseEncodingDirection": "j-",
  "PhaseEncodingSteps": 91,
  "PhaseResolution": 1,
  "PixelBandwidth": 1717,
  "ProcedureStepDescription": "Diedrichsen_SeqRep4",
  "ProtocolName": "mbep2d_bold_mb2_p3_AP_2iso",
  "PulseSequenceDetails": "%CustomerSeq%_cmrr_mbep2d_bold",
  "ReceiveCoilName": "CFMM_8Tx32Rx",
  "ReconMatrixPE": 104,
  "RefLinesPE": 36,
  "RepetitionTime": 1,
  "ScanOptions": "PFP_FS",
  "ScanningSequence": "EP",
  "SequenceName": "epfid2d1_104",
  "SequenceVariant": "SK_SS",
  "SeriesDescription": "mbep2d_bold_mb2_p3_AP_2iso",
  "SeriesNumber": 11,
  "ShimSetting": [-14, 2022, 42, 1483, 7, -60, 221, -154],
  "SliceThickness": 2,
  "SliceTiming": [0, 0.2275, 0.4575, 0.685, 0.9125, 0.1375, 0.365, 0.5925, 0.82, 0.045, 0.275, 0.5025, 0.73, 0.9575, 0.1825, 0.41, 0.64, 0.8675, 0.0925, 0.32, 0.5475, 0.775, 0, 0.2275, 0.4575, 0.685, 0.9125, 0.1375, 0.365, 0.5925, 0.82, 0.045, 0.275, 0.5025, 0.73, 0.9575, 0.1825, 0.41, 0.64, 0.8675, 0.0925, 0.32, 0.5475, 0.775],
  "SoftwareVersions": "syngo_MR_B17",
  "SpacingBetweenSlices": 2,
  "StationName": "MASTER",
  "TaskName": "dsp",
  "TotalReadoutTime": 0.0230033,
  "TxRefAmp": 120,
  "dcmmeta_affine": [
    [-2.0, -4.000000067449534e-16, 5.1518237917901055e-17, 105.4527816772461],
    [-4.000000067449534e-16, 1.9833422899246216, -0.257591187953949, -113.77422332763672],
    [0.0, 0.257591187953949, 1.9833422899246216, -50.01731491088867],
    [0.0, 0.0, 0.0, 1.0]
],
  "dcmmeta_reorient_transform": [
    [0.0, -1.0, 0.0, 103.0],
    [1.0, 0.0, 0.0, 0.0],
    [0.0, 0.0, 1.0, 0.0],
    [0.0, 0.0, 0.0, 1.0]
],
  "dcmmeta_shape": [104, 104, 44, 330],
  "dcmmeta_slice_dim": 2,
  "dcmmeta_version": 0.6,
  "global": {
    "const": {
      "AcquisitionMatrix": [104, 0, 0, 104],
      "AngioFlag": "N",
      "BitsAllocated": 16,
      "BitsStored": 12,
      "Columns": 728,
      "EchoNumbers": 1,
      "EchoTime": 20.0,
      "EchoTrainLength": 1,
      "FlipAngle": 30.0,
      "HighBit": 11,
      "ImageOrientationPatient": [1.0, 2e-16, 0.0, -2e-16, 0.99167116265211, -0.1287955945062],
      "ImagePositionPatient": [-729.45278453827, -709.31284237265, 56.883027700431],
      "ImageType": [
        "ORIGINAL",
        "PRIMARY",
        "M",
        "MB",
        "ND",
        "MOSAIC"
],
      "ImagedNucleus": "1H",
      "ImagingFrequency": 297.228842,
      "InPlanePhaseEncodingDirection": "COL",
      "MRAcquisitionType": "2D",
      "MagneticFieldStrength": 6.98,
      "Manufacturer": "SIEMENS",
      "ManufacturerModelName": "Investigational_Device_7T",
      "Modality": "MR",
      "NumberOfAverages": 1.0,
      "NumberOfPhaseEncodingSteps": 91,
      "PercentPhaseFieldOfView": 100.0,
      "PercentSampling": 100.0,
      "PerformedProcedureStepStartTime": "090559.843000",
      "PhotometricInterpretation": "MONOCHROME2",
      "PixelBandwidth": 1717.0,
      "PixelRepresentation": 0,
      "PixelSpacing": [2.0, 2.0],
      "ProtocolName": "mbep2d_bold_mb2_p3_AP 2iso",
      "RepetitionTime": 1000.0,
      "Rows": 728,
      "SAR": 0.0,
      "SamplesPerPixel": 1,
      "ScanOptions": [
        "PFP",
        "FS"
],
      "ScanningSequence": "EP",
      "SequenceName": "epfid2d1_104",
      "SequenceVariant": [
        "SK",
        "SS"
],
      "SeriesDescription": "mbep2d_bold_mb2_p3_AP 2iso",
      "SeriesNumber": 11,
      "SeriesTime": "092500.656000",
      "SliceLocation": -34.947111009424,
      "SliceThickness": 2.0,
      "SmallestImagePixelValue": 0,
      "SoftwareVersions": "syngo MR B17",
      "SpacingBetweenSlices": 1.9999999584949,
      "SpecificCharacterSet": "ISO_IR 100",
      "StudyID": "1",
      "StudyTime": "090559.796000",
      "TransmitCoilName": "CFMM_8Tx32Rx",
      "VariableFlipAngleFlag": "N",
      "WindowCenterWidthExplanation": "Algo1",
      "dBdt": 0.0},
    "slices": {}
  },
  "time": {
    "samples": {
      "AcquisitionNumber": [1, 2, 3, 4, 5, 6, 7, 8, 9, 10, 11, 12, 13, 14, 15, 16, 17, 18, 19, 20, 21, 22, 23, 24, 25, 26, 27, 28, 29, 30, 31, 32, 33, 34, 35, 36, 37, 38, 39, 40, 41, 42, 43, 44, 45, 46, 47, 48, 49, 50, 51, 52, 53, 54, 55, 56, 57, 58, 59, 60, 61, 62, 63, 64, 65, 66, 67, 68, 69, 70, 71, 72, 73, 74, 75, 76, 77, 78, 79, 80, 81, 82, 83, 84, 85, 86, 87, 88, 89, 90, 91, 92, 93, 94, 95, 96, 97, 98, 99, 100, 101, 102, 103, 104, 105, 106, 107, 108, 109, 110, 111, 112, 113, 114, 115, 116, 117, 118, 119, 120, 121, 122, 123, 124, 125, 126, 127, 128, 129, 130, 131, 132, 133, 134, 135, 136, 137, 138, 139, 140, 141, 142, 143, 144, 145, 146, 147, 148, 149, 150, 151, 152, 153, 154, 155, 156, 157, 158, 159, 160, 161, 162, 163, 164, 165, 166, 167, 168, 169, 170, 171, 172, 173, 174, 175, 176, 177, 178, 179, 180, 181, 182, 183, 184, 185, 186, 187, 188, 189, 190, 191, 192, 193, 194, 195, 196, 197, 198, 199, 200, 201, 202, 203, 204, 205, 206, 207, 208, 209, 210, 211, 212, 213, 214, 215, 216, 217, 218, 219, 220, 221, 222, 223, 224, 225, 226, 227, 228, 229, 230, 231, 232, 233, 234, 235, 236, 237, 238, 239, 240, 241, 242, 243, 244, 245, 246, 247, 248, 249, 250, 251, 252, 253, 254, 255, 256, 257, 258, 259, 260, 261, 262, 263, 264, 265, 266, 267, 268, 269, 270, 271, 272, 273, 274, 275, 276, 277, 278, 279, 280, 281, 282, 283, 284, 285, 286, 287, 288, 289, 290, 291, 292, 293, 294, 295, 296, 297, 298, 299, 300, 301, 302, 303, 304, 305, 306, 307, 308, 309, 310, 311, 312, 313, 314, 315, 316, 317, 318, 319, 320, 321, 322, 323, 324, 325, 326, 327, 328, 329, 330],
      "AcquisitionTime": ["092419.987500", "092420.992500", "092421.995000", "092423.000000", "092424.005000", "092425.007500", "092426.012500", "092427.015000", "092428.020000", "092429.025000", "092430.027500", "092431.032500", "092432.035000", "092433.040000", "092434.045000", "092435.047500", "092436.052500", "092437.055000", "092438.060000", "092439.065000", "092440.067500", "092441.072500", "092442.075000", "092443.080000", "092444.085000", "092445.087500", "092446.092500", "092447.095000", "092448.100000", "092449.105000", "092450.107500", "092451.112500", "092452.115000", "092453.120000", "092454.125000", "092455.127500", "092456.132500", "092457.137500", "092458.140000", "092459.145000", "092500.147500", "092501.152500", "092502.157500", "092503.160000", "092504.165000", "092505.167500", "092506.172500", "092507.177500", "092508.180000", "092509.185000", "092510.187500", "092511.192500", "092512.197500", "092513.200000", "092514.205000", "092515.207500", "092516.212500", "092517.217500", "092518.220000", "092519.225000", "092520.227500", "092521.232500", "092522.237500", "092523.240000", "092524.245000", "092525.250000", "092526.252500", "092527.257500", "092528.260000", "092529.265000", "092530.270000", "092531.272500", "092532.277500", "092533.280000", "092534.285000", "092535.290000", "092536.292500", "092537.297500", "092538.300000", "092539.305000", "092540.310000", "092541.312500", "092542.317500", "092543.320000", "092544.325000", "092545.330000", "092546.332500", "092547.337500", "092548.340000", "092549.345000", "092550.350000", "092551.352500", "092552.357500", "092553.360000", "092554.365000", "092555.370000", "092556.372500", "092557.377500", "092558.382500", "092559.385000", "092600.390000", "092601.392500", "092602.397500", "092603.402500", "092604.405000", "092605.410000", "092606.412500", "092607.417500", "092608.422500", "092609.425000", "092610.430000", "092611.432500", "092612.437500", "092613.442500", "092614.445000", "092615.450000", "092616.452500", "092617.457500", "092618.462500", "092619.465000", "092620.470000", "092621.472500", "092622.477500", "092623.482500", "092624.485000", "092625.490000", "092626.492500", "092627.497500", "092628.502500", "092629.505000", "092630.510000", "092631.515000", "092632.517500", "092633.522500", "092634.525000", "092635.530000", "092636.535000", "092637.537500", "092638.542500", "092639.545000", "092640.550000", "092641.555000", "092642.557500", "092643.562500", "092644.565000", "092645.570000", "092646.575000", "092647.577500", "092648.582500", "092649.585000", "092650.590000", "092651.595000", "092652.597500", "092653.602500", "092654.605000", "092655.610000", "092656.615000", "092657.617500", "092658.622500", "092659.627500", "092700.630000", "092701.635000", "092702.637500", "092703.642500", "092704.647500", "092705.650000", "092706.655000", "092707.657500", "092708.662500", "092709.667500", "092710.670000", "092711.675000", "092712.677500", "092713.682500", "092714.687500", "092715.690000", "092716.695000", "092717.697500", "092718.702500", "092719.707500", "092720.710000", "092721.715000", "092722.717500", "092723.722500", "092724.727500", "092725.730000", "092726.735000", "092727.737500", "092728.742500", "092729.747500", "092730.750000", "092731.755000", "092732.760000", "092733.762500", "092734.767500", "092735.770000", "092736.775000", "092737.780000", "092738.782500", "092739.787500", "092740.790000", "092741.795000", "092742.800000", "092743.802500", "092744.807500", "092745.810000", "092746.815000", "092747.820000", "092748.822500", "092749.827500", "092750.830000", "092751.835000", "092752.840000", "092753.842500", "092754.847500", "092755.850000", "092756.855000", "092757.860000", "092758.862500", "092759.867500", "092800.872500", "092801.875000", "092802.880000", "092803.882500", "092804.887500", "092805.892500", "092806.895000", "092807.900000", "092808.902500", "092809.907500", "092810.912500", "092811.915000", "092812.920000", "092813.922500", "092814.927500", "092815.932500", "092816.935000", "092817.940000", "092818.942500", "092819.947500", "092820.952500", "092821.955000", "092822.960000", "092823.962500", "092824.967500", "092825.972500", "092826.975000", "092827.980000", "092828.982500", "092829.987500", "092830.992500", "092831.995000", "092833.000000", "092834.005000", "092835.007500", "092836.012500", "092837.015000", "092838.020000", "092839.025000", "092840.027500", "092841.032500", "092842.035000", "092843.040000", "092844.045000", "092845.047500", "092846.052500", "092847.055000", "092848.060000", "092849.065000", "092850.067500", "092851.072500", "092852.075000", "092853.080000", "092854.085000", "092855.087500", "092856.092500", "092857.095000", "092858.100000", "092859.105000", "092900.107500", "092901.112500", "092902.115000", "092903.120000", "092904.125000", "092905.127500", "092906.132500", "092907.137500", "092908.140000", "092909.145000", "092910.147500", "092911.152500", "092912.157500", "092913.160000", "092914.165000", "092915.167500", "092916.172500", "092917.177500", "092918.180000", "092919.185000", "092920.187500", "092921.192500", "092922.197500", "092923.200000", "092924.205000", "092925.207500", "092926.212500", "092927.217500", "092928.220000", "092929.225000", "092930.227500", "092931.232500", "092932.237500", "092933.240000", "092934.245000", "092935.250000", "092936.252500", "092937.257500", "092938.260000", "092939.265000", "092940.270000", "092941.272500", "092942.277500", "092943.280000", "092944.285000", "092945.290000", "092946.292500", "092947.297500", "092948.300000", "092949.305000", "092950.310000"],
      "ContentTime": ["092500.656000", "092500.656000", "092500.656000", "092500.656000", "092500.656000", "092500.671000", "092500.671000", "092500.671000", "092500.671000", "092500.671000", "092500.671000", "092500.671000", "092500.671000", "092500.687000", "092500.687000", "092500.687000", "092500.687000", "092500.687000", "092500.687000", "092500.687000", "092500.703000", "092500.703000", "092500.703000", "092500.703000", "092500.703000", "092500.703000", "092500.703000", "092500.718000", "092500.718000", "092500.718000", "092500.718000", "092500.718000", "092500.734000", "092500.734000", "092500.734000", "092500.734000", "092500.734000", "092500.750000", "092500.750000", "092520.609000", "092520.609000", "092520.609000", "092520.609000", "092520.625000", "092520.625000", "092520.625000", "092520.625000", "092520.625000", "092520.625000", "092520.625000", "092520.625000", "092520.640000", "092520.640000", "092520.640000", "092520.640000", "092520.640000", "092520.640000", "092520.640000", "092520.656000", "092540.609000", "092540.609000", "092540.609000", "092540.609000", "092540.625000", "092540.625000", "092540.625000", "092540.625000", "092540.625000", "092540.625000", "092540.625000", "092540.640000", "092540.640000", "092540.640000", "092540.640000", "092540.640000", "092540.640000", "092540.640000", "092540.656000", "092540.656000", "092600.609000", "092600.609000", "092600.609000", "092600.609000", "092600.625000", "092600.625000", "092600.625000", "092600.625000", "092600.625000", "092600.625000", "092600.640000", "092600.640000", "092600.640000", "092600.640000", "092600.640000", "092600.640000", "092600.656000", "092600.656000", "092600.656000", "092600.656000", "092620.609000", "092620.609000", "092620.609000", "092620.609000", "092620.625000", "092620.625000", "092620.625000", "092620.625000", "092620.625000", "092620.625000", "092620.625000", "092620.625000", "092620.640000", "092620.640000", "092620.640000", "092620.640000", "092620.640000", "092620.640000", "092620.640000", "092620.656000", "092640.609000", "092640.609000", "092640.609000", "092640.625000", "092640.625000", "092640.625000", "092640.625000", "092640.625000", "092640.640000", "092640.640000", "092640.640000", "092640.640000", "092640.640000", "092640.640000", "092640.640000", "092640.656000", "092640.656000", "092640.656000", "092640.656000", "092640.656000", "092700.609000", "092700.609000", "092700.609000", "092700.609000", "092700.625000", "092700.625000", "092700.625000", "092700.625000", "092700.625000", "092700.625000", "092700.625000", "092700.625000", "092700.640000", "092700.640000", "092700.640000", "092700.640000", "092700.640000", "092700.640000", "092700.640000", "092700.656000", "092720.609000", "092720.609000", "092720.609000", "092720.609000", "092720.625000", "092720.625000", "092720.625000", "092720.625000", "092720.625000", "092720.625000", "092720.625000", "092720.640000", "092720.640000", "092720.640000", "092720.640000", "092720.640000", "092720.640000", "092720.640000", "092720.656000", "092720.656000", "092740.609000", "092740.609000", "092740.609000", "092740.609000", "092740.625000", "092740.625000", "092740.625000", "092740.625000", "092740.625000", "092740.625000", "092740.640000", "092740.640000", "092740.640000", "092740.640000", "092740.640000", "092740.640000", "092740.640000", "092740.656000", "092740.656000", "092740.656000", "092800.609000", "092800.609000", "092800.609000", "092800.609000", "092800.625000", "092800.625000", "092800.625000", "092800.625000", "092800.625000", "092800.625000", "092800.640000", "092800.640000", "092800.640000", "092800.640000", "092800.640000", "092800.640000", "092800.656000", "092800.656000", "092800.656000", "092800.656000", "092820.609000", "092820.609000", "092820.609000", "092820.609000", "092820.625000", "092820.625000", "092820.625000", "092820.625000", "092820.625000", "092820.625000", "092820.625000", "092820.625000", "092820.640000", "092820.640000", "092820.640000", "092820.640000", "092820.640000", "092820.640000", "092820.640000", "092820.656000", "092840.609000", "092840.609000", "092840.609000", "092840.609000", "092840.625000", "092840.625000", "092840.625000", "092840.625000", "092840.625000", "092840.625000", "092840.625000", "092840.625000", "092840.640000", "092840.640000", "092840.640000", "092840.640000", "092840.640000", "092840.640000", "092840.640000", "092840.640000", "092900.609000", "092900.609000", "092900.609000", "092900.609000", "092900.625000", "092900.625000", "092900.625000", "092900.625000", "092900.625000", "092900.625000", "092900.625000", "092900.640000", "092900.640000", "092900.640000", "092900.640000", "092900.640000", "092900.640000", "092900.640000", "092900.656000", "092900.656000", "092920.609000", "092920.609000", "092920.609000", "092920.609000", "092920.625000", "092920.625000", "092920.625000", "092920.625000", "092920.625000", "092920.625000", "092920.625000", "092920.625000", "092920.640000", "092920.640000", "092920.640000", "092920.640000", "092920.640000", "092920.656000", "092920.656000", "092920.656000", "092940.609000", "092940.609000", "092940.609000", "092940.609000", "092940.625000", "092940.625000", "092940.625000", "092940.625000", "092940.625000", "092940.625000", "092940.625000", "092940.625000", "092940.640000", "092940.640000", "092940.640000", "092940.640000", "092940.640000", "092940.640000", "092940.640000", "092940.656000", "092956.140000", "092956.140000", "092956.140000", "092956.140000", "092956.140000", "092956.156000", "092956.156000", "092956.156000", "092956.156000", "092956.156000", "092956.156000"],
      "InstanceCreationTime": ["092500.656000", "092500.656000", "092500.656000", "092500.656000", "092500.656000", "092500.671000", "092500.671000", "092500.671000", "092500.671000", "092500.671000", "092500.671000", "092500.671000", "092500.671000", "092500.687000", "092500.687000", "092500.687000", "092500.687000", "092500.687000", "092500.687000", "092500.687000", "092500.703000", "092500.703000", "092500.703000", "092500.703000", "092500.703000", "092500.703000", "092500.703000", "092500.718000", "092500.718000", "092500.718000", "092500.718000", "092500.718000", "092500.734000", "092500.734000", "092500.734000", "092500.734000", "092500.734000", "092500.750000", "092500.750000", "092520.609000", "092520.609000", "092520.609000", "092520.609000", "092520.625000", "092520.625000", "092520.625000", "092520.625000", "092520.625000", "092520.625000", "092520.625000", "092520.625000", "092520.640000", "092520.640000", "092520.640000", "092520.640000", "092520.640000", "092520.640000", "092520.640000", "092520.656000", "092540.609000", "092540.609000", "092540.609000", "092540.609000", "092540.625000", "092540.625000", "092540.625000", "092540.625000", "092540.625000", "092540.625000", "092540.625000", "092540.640000", "092540.640000", "092540.640000", "092540.640000", "092540.640000", "092540.640000", "092540.640000", "092540.656000", "092540.656000", "092600.609000", "092600.609000", "092600.609000", "092600.609000", "092600.625000", "092600.625000", "092600.625000", "092600.625000", "092600.625000", "092600.625000", "092600.640000", "092600.640000", "092600.640000", "092600.640000", "092600.640000", "092600.640000", "092600.656000", "092600.656000", "092600.656000", "092600.656000", "092620.609000", "092620.609000", "092620.609000", "092620.609000", "092620.625000", "092620.625000", "092620.625000", "092620.625000", "092620.625000", "092620.625000", "092620.625000", "092620.625000", "092620.640000", "092620.640000", "092620.640000", "092620.640000", "092620.640000", "092620.640000", "092620.640000", "092620.656000", "092640.609000", "092640.609000", "092640.609000", "092640.625000", "092640.625000", "092640.625000", "092640.625000", "092640.625000", "092640.640000", "092640.640000", "092640.640000", "092640.640000", "092640.640000", "092640.640000", "092640.640000", "092640.656000", "092640.656000", "092640.656000", "092640.656000", "092640.656000", "092700.609000", "092700.609000", "092700.609000", "092700.609000", "092700.625000", "092700.625000", "092700.625000", "092700.625000", "092700.625000", "092700.625000", "092700.625000", "092700.625000", "092700.640000", "092700.640000", "092700.640000", "092700.640000", "092700.640000", "092700.640000", "092700.640000", "092700.656000", "092720.609000", "092720.609000", "092720.609000", "092720.609000", "092720.625000", "092720.625000", "092720.625000", "092720.625000", "092720.625000", "092720.625000", "092720.625000", "092720.640000", "092720.640000", "092720.640000", "092720.640000", "092720.640000", "092720.640000", "092720.640000", "092720.656000", "092720.656000", "092740.609000", "092740.609000", "092740.609000", "092740.609000", "092740.625000", "092740.625000", "092740.625000", "092740.625000", "092740.625000", "092740.625000", "092740.640000", "092740.640000", "092740.640000", "092740.640000", "092740.640000", "092740.640000", "092740.640000", "092740.656000", "092740.656000", "092740.656000", "092800.609000", "092800.609000", "092800.609000", "092800.609000", "092800.625000", "092800.625000", "092800.625000", "092800.625000", "092800.625000", "092800.625000", "092800.640000", "092800.640000", "092800.640000", "092800.640000", "092800.640000", "092800.640000", "092800.656000", "092800.656000", "092800.656000", "092800.656000", "092820.609000", "092820.609000", "092820.609000", "092820.609000", "092820.625000", "092820.625000", "092820.625000", "092820.625000", "092820.625000", "092820.625000", "092820.625000", "092820.625000", "092820.640000", "092820.640000", "092820.640000", "092820.640000", "092820.640000", "092820.640000", "092820.640000", "092820.656000", "092840.609000", "092840.609000", "092840.609000", "092840.609000", "092840.625000", "092840.625000", "092840.625000", "092840.625000", "092840.625000", "092840.625000", "092840.625000", "092840.625000", "092840.640000", "092840.640000", "092840.640000", "092840.640000", "092840.640000", "092840.640000", "092840.640000", "092840.640000", "092900.609000", "092900.609000", "092900.609000", "092900.609000", "092900.625000", "092900.625000", "092900.625000", "092900.625000", "092900.625000", "092900.625000", "092900.625000", "092900.640000", "092900.640000", "092900.640000", "092900.640000", "092900.640000", "092900.640000", "092900.640000", "092900.656000", "092900.656000", "092920.609000", "092920.609000", "092920.609000", "092920.609000", "092920.625000", "092920.625000", "092920.625000", "092920.625000", "092920.625000", "092920.625000", "092920.625000", "092920.625000", "092920.640000", "092920.640000", "092920.640000", "092920.640000", "092920.640000", "092920.656000", "092920.656000", "092920.656000", "092940.609000", "092940.609000", "092940.609000", "092940.609000", "092940.625000", "092940.625000", "092940.625000", "092940.625000", "092940.625000", "092940.625000", "092940.625000", "092940.625000", "092940.640000", "092940.640000", "092940.640000", "092940.640000", "092940.640000", "092940.640000", "092940.640000", "092940.656000", "092956.140000", "092956.140000", "092956.140000", "092956.140000", "092956.140000", "092956.156000", "092956.156000", "092956.156000", "092956.156000", "092956.156000", "092956.156000"],
      "InstanceNumber": [1, 2, 3, 4, 5, 6, 7, 8, 9, 10, 11, 12, 13, 14, 15, 16, 17, 18, 19, 20, 21, 22, 23, 24, 25, 26, 27, 28, 29, 30, 31, 32, 33, 34, 35, 36, 37, 38, 39, 40, 41, 42, 43, 44, 45, 46, 47, 48, 49, 50, 51, 52, 53, 54, 55, 56, 57, 58, 59, 60, 61, 62, 63, 64, 65, 66, 67, 68, 69, 70, 71, 72, 73, 74, 75, 76, 77, 78, 79, 80, 81, 82, 83, 84, 85, 86, 87, 88, 89, 90, 91, 92, 93, 94, 95, 96, 97, 98, 99, 100, 101, 102, 103, 104, 105, 106, 107, 108, 109, 110, 111, 112, 113, 114, 115, 116, 117, 118, 119, 120, 121, 122, 123, 124, 125, 126, 127, 128, 129, 130, 131, 132, 133, 134, 135, 136, 137, 138, 139, 140, 141, 142, 143, 144, 145, 146, 147, 148, 149, 150, 151, 152, 153, 154, 155, 156, 157, 158, 159, 160, 161, 162, 163, 164, 165, 166, 167, 168, 169, 170, 171, 172, 173, 174, 175, 176, 177, 178, 179, 180, 181, 182, 183, 184, 185, 186, 187, 188, 189, 190, 191, 192, 193, 194, 195, 196, 197, 198, 199, 200, 201, 202, 203, 204, 205, 206, 207, 208, 209, 210, 211, 212, 213, 214, 215, 216, 217, 218, 219, 220, 221, 222, 223, 224, 225, 226, 227, 228, 229, 230, 231, 232, 233, 234, 235, 236, 237, 238, 239, 240, 241, 242, 243, 244, 245, 246, 247, 248, 249, 250, 251, 252, 253, 254, 255, 256, 257, 258, 259, 260, 261, 262, 263, 264, 265, 266, 267, 268, 269, 270, 271, 272, 273, 274, 275, 276, 277, 278, 279, 280, 281, 282, 283, 284, 285, 286, 287, 288, 289, 290, 291, 292, 293, 294, 295, 296, 297, 298, 299, 300, 301, 302, 303, 304, 305, 306, 307, 308, 309, 310, 311, 312, 313, 314, 315, 316, 317, 318, 319, 320, 321, 322, 323, 324, 325, 326, 327, 328, 329, 330],
      "LargestImagePixelValue": [2895, 2938, 2870, 2867, 2863, 2858, 2892, 2875, 2916, 2887, 2893, 2912, 2854, 2869, 2856, 2840, 2867, 2890, 2886, 2888, 2852, 2840, 2879, 2858, 2884, 2863, 2851, 2851, 2879, 2892, 2867, 2848, 2878, 2862, 2850, 2834, 2854, 2862, 2870, 2849, 2876, 2824, 2850, 2884, 2889, 2898, 2858, 2900, 2896, 2858, 2847, 2902, 2913, 2921, 2903, 2864, 2923, 2876, 2881, 2884, 2870, 2879, 2857, 2867, 2877, 2883, 2822, 2854, 2852, 2815, 2800, 2801, 2842, 2830, 2915, 2845, 2902, 2875, 2856, 2858, 2902, 2857, 2915, 2892, 2899, 2857, 2876, 2850, 2863, 2892, 2850, 2849, 2865, 2875, 2903, 2872, 2897, 2897, 2841, 2836, 2848, 2851, 2881, 2835, 2857, 2860, 2824, 2830, 2820, 2839, 2850, 2871, 2866, 2864, 2891, 2884, 2915, 2890, 2912, 2869, 2851, 2857, 2855, 2864, 2891, 2846, 2892, 2871, 2842, 2861, 2850, 2846, 2877, 2896, 2868, 2849, 2875, 2875, 2885, 2824, 2859, 2823, 2833, 2828, 2838, 2842, 2849, 2880, 2870, 2873, 2866, 2890, 2909, 2925, 2883, 2850, 2883, 2872, 2882, 2882, 2854, 2921, 2904, 2874, 2907, 2901, 2857, 2884, 2891, 2947, 2852, 2932, 2832, 2905, 2898, 2968, 2894, 2882, 2858, 2874, 2878, 2856, 2858, 2854, 2887, 2902, 2912, 2886, 2915, 2879, 2973, 2961, 2838, 2890, 2861, 2872, 2922, 2965, 2970, 2963, 2981, 3043, 3012, 2998, 3038, 3071, 3062, 3048, 3046, 3028, 3017, 3031, 3049, 3076, 3018, 3017, 2998, 2983, 3019, 3036, 3093, 3068, 3064, 3039, 3028, 3035, 3048, 3069, 3019, 3078, 3034, 3083, 3074, 3051, 3055, 3065, 3060, 3020, 3023, 3011, 3014, 3029, 3030, 3040, 3055, 3059, 3053, 3070, 3078, 3095, 3107, 3098, 3010, 3075, 3035, 3050, 3034, 3030, 3037, 3052, 3073, 3063, 3032, 3055, 3040, 3031, 3053, 3035, 3048, 3025, 3056, 3080, 3066, 3074, 3066, 3084, 3070, 3047, 3078, 3007, 3058, 3092, 3027, 3060, 3086, 3072, 3081, 3072, 3064, 3035, 3039, 3034, 3075, 3022, 3084, 3036, 3044, 3032, 3056, 3065, 3040, 3051, 3084, 3098, 3100, 3088, 3091, 3050, 3039, 3073, 3085, 3064, 3068, 3002, 3038, 3039, 3030, 3028, 3034, 3026, 3074, 3066, 3059, 3039, 3046, 3042, 3035, 3046, 3082, 3059],
      "WindowCenter": [483.0, 482.0, 481.0, 480.0, 481.0, 481.0, 482.0, 481.0, 482.0, 482.0, 482.0, 481.0, 480.0, 481.0, 482.0, 483.0, 483.0, 484.0, 483.0, 481.0, 481.0, 481.0, 482.0, 482.0, 481.0, 480.0, 481.0, 481.0, 481.0, 482.0, 482.0, 482.0, 482.0, 482.0, 481.0, 481.0, 482.0, 483.0, 482.0, 482.0, 481.0, 480.0, 479.0, 479.0, 478.0, 478.0, 479.0, 481.0, 481.0, 481.0, 480.0, 481.0, 482.0, 482.0, 483.0, 483.0, 484.0, 483.0, 482.0, 481.0, 480.0, 480.0, 479.0, 479.0, 479.0, 478.0, 477.0, 477.0, 478.0, 477.0, 476.0, 476.0, 476.0, 477.0, 479.0, 478.0, 480.0, 480.0, 479.0, 480.0, 482.0, 482.0, 482.0, 482.0, 483.0, 482.0, 481.0, 480.0, 479.0, 480.0, 480.0, 480.0, 479.0, 478.0, 479.0, 478.0, 479.0, 480.0, 481.0, 480.0, 480.0, 480.0, 480.0, 479.0, 479.0, 478.0, 477.0, 477.0, 477.0, 476.0, 476.0, 477.0, 478.0, 479.0, 480.0, 481.0, 483.0, 484.0, 483.0, 481.0, 480.0, 479.0, 480.0, 480.0, 481.0, 481.0, 482.0, 484.0, 483.0, 484.0, 484.0, 483.0, 482.0, 483.0, 481.0, 480.0, 482.0, 482.0, 481.0, 480.0, 480.0, 479.0, 479.0, 479.0, 480.0, 479.0, 479.0, 480.0, 480.0, 481.0, 481.0, 482.0, 483.0, 483.0, 483.0, 482.0, 482.0, 481.0, 480.0, 479.0, 479.0, 480.0, 480.0, 480.0, 481.0, 481.0, 481.0, 480.0, 480.0, 481.0, 478.0, 479.0, 479.0, 481.0, 481.0, 482.0, 480.0, 479.0, 478.0, 479.0, 478.0, 478.0, 477.0, 478.0, 479.0, 478.0, 479.0, 478.0, 480.0, 482.0, 484.0, 483.0, 482.0, 484.0, 482.0, 481.0, 481.0, 481.0, 481.0, 481.0, 481.0, 480.0, 480.0, 479.0, 480.0, 480.0, 481.0, 481.0, 481.0, 480.0, 480.0, 480.0, 481.0, 483.0, 483.0, 484.0, 484.0, 483.0, 482.0, 481.0, 482.0, 483.0, 483.0, 483.0, 482.0, 482.0, 482.0, 482.0, 481.0, 481.0, 480.0, 480.0, 481.0, 480.0, 481.0, 483.0, 484.0, 484.0, 484.0, 484.0, 485.0, 484.0, 483.0, 483.0, 483.0, 482.0, 482.0, 482.0, 481.0, 482.0, 483.0, 484.0, 483.0, 484.0, 482.0, 482.0, 481.0, 481.0, 480.0, 480.0, 480.0, 479.0, 479.0, 479.0, 478.0, 479.0, 480.0, 481.0, 482.0, 483.0, 483.0, 483.0, 483.0, 482.0, 483.0, 483.0, 484.0, 483.0, 482.0, 480.0, 481.0, 481.0, 480.0, 481.0, 481.0, 481.0, 482.0, 483.0, 483.0, 483.0, 482.0, 481.0, 481.0, 480.0, 481.0, 482.0, 482.0, 481.0, 480.0, 479.0, 479.0, 479.0, 480.0, 479.0, 479.0, 479.0, 480.0, 479.0, 479.0, 480.0, 480.0, 480.0, 482.0, 482.0, 483.0, 482.0, 481.0, 481.0, 481.0, 480.0, 481.0, 481.0, 481.0, 481.0, 481.0, 481.0, 481.0, 481.0, 481.0, 481.0],
