{
  "AcquisitionMatrixPE": 104,
  "AcquisitionNumber": 1,
  "AcquisitionTime": "09:38:31.277500",
  "BandwidthPerPixelPhaseEncode": 43.054,
  "BaseResolution": 104,
  "CoilString": "C:E1_2",
  "ConversionSoftware": "dcm2niix",
  "ConversionSoftwareVersion": "v1.0.20191031",
  "DerivedVendorReportedEchoSpacing": 0.000669999,
  "DeviceSerialNumber": "18932",
  "DwellTime": 2.8e-06,
  "EchoTime": 0.02,
  "EffectiveEchoSpacing": 0.000223333,
  "FlipAngle": 30,
  "ImageComments": "Unaliased_MB2_PE2",
  "ImageOrientationPatientDICOM": [1, 2e-16, 0, -2e-16, 0.991671, -0.128796],
  "ImageType": [
    "ORIGINAL",
    "PRIMARY",
    "M",
    "MB",
    "ND",
    "MOSAIC"
],
  "ImagingFrequency": 297.229,
  "InPlanePhaseEncodingDirectionDICOM": "COL",
  "InstitutionAddress": "Richmond_Street_North_1151_London_409EF2_Ontario_CA_N6A_5B7",
  "InstitutionName": "Robarts_Reserch_Institute",
  "InstitutionalDepartmentName": "Department",
  "MRAcquisitionType": "2D",
  "MagneticFieldStrength": 6.98,
  "Manufacturer": "Siemens",
  "ManufacturersModelName": "Investigational_Device_7T",
  "Modality": "MR",
  "MultibandAccelerationFactor": 2,
  "ParallelReductionFactorInPlane": 3,
  "PartialFourier": 0.875,
  "PatientPosition": "HFS",
  "PercentPhaseFOV": 100,
  "PhaseEncodingDirection": "j-",
  "PhaseEncodingSteps": 91,
  "PhaseResolution": 1,
  "PixelBandwidth": 1717,
  "ProcedureStepDescription": "Diedrichsen_SeqRep4",
  "ProtocolName": "mbep2d_bold_mb2_p3_AP_2iso",
  "PulseSequenceDetails": "%CustomerSeq%_cmrr_mbep2d_bold",
  "ReceiveCoilName": "CFMM_8Tx32Rx",
  "ReconMatrixPE": 104,
  "RefLinesPE": 36,
  "RepetitionTime": 1,
  "ScanOptions": "PFP_FS",
  "ScanningSequence": "EP",
  "SequenceName": "epfid2d1_104",
  "SequenceVariant": "SK_SS",
  "SeriesDescription": "mbep2d_bold_mb2_p3_AP_2iso",
  "SeriesNumber": 15,
  "ShimSetting": [-14, 2022, 42, 1483, 7, -60, 221, -154],
  "SliceThickness": 2,
  "SliceTiming": [0, 0.2275, 0.4575, 0.685, 0.9125, 0.1375, 0.365, 0.5925, 0.8225, 0.045, 0.275, 0.5025, 0.73, 0.9575, 0.1825, 0.41, 0.64, 0.8675, 0.0925, 0.32, 0.5475, 0.775, 0, 0.2275, 0.4575, 0.685, 0.9125, 0.1375, 0.365, 0.5925, 0.8225, 0.045, 0.275, 0.5025, 0.73, 0.9575, 0.1825, 0.41, 0.64, 0.8675, 0.0925, 0.32, 0.5475, 0.775],
  "SoftwareVersions": "syngo_MR_B17",
  "SpacingBetweenSlices": 2,
  "StationName": "MASTER",
  "TaskName": "dsp",
  "TotalReadoutTime": 0.0230033,
  "TxRefAmp": 120,
  "dcmmeta_affine": [
    [-2.0, -4.000000067449534e-16, 5.1518237917901055e-17, 105.4527816772461],
    [-4.000000067449534e-16, 1.9833422899246216, -0.257591187953949, -113.77422332763672],
    [0.0, 0.257591187953949, 1.9833422899246216, -50.01731491088867],
    [0.0, 0.0, 0.0, 1.0]
],
  "dcmmeta_reorient_transform": [
    [0.0, -1.0, 0.0, 103.0],
    [1.0, 0.0, 0.0, 0.0],
    [0.0, 0.0, 1.0, 0.0],
    [0.0, 0.0, 0.0, 1.0]
],
  "dcmmeta_shape": [104, 104, 44, 330],
  "dcmmeta_slice_dim": 2,
  "dcmmeta_version": 0.6,
  "global": {
    "const": {
      "AcquisitionMatrix": [104, 0, 0, 104],
      "AngioFlag": "N",
      "BitsAllocated": 16,
      "BitsStored": 12,
      "Columns": 728,
      "EchoNumbers": 1,
      "EchoTime": 20.0,
      "EchoTrainLength": 1,
      "FlipAngle": 30.0,
      "HighBit": 11,
      "ImageOrientationPatient": [1.0, 2e-16, 0.0, -2e-16, 0.99167116265211, -0.1287955945062],
      "ImagePositionPatient": [-729.45278453827, -709.31284237265, 56.883027700431],
      "ImageType": [
        "ORIGINAL",
        "PRIMARY",
        "M",
        "MB",
        "ND",
        "MOSAIC"
],
      "ImagedNucleus": "1H",
      "ImagingFrequency": 297.22887,
      "InPlanePhaseEncodingDirection": "COL",
      "MRAcquisitionType": "2D",
      "MagneticFieldStrength": 6.98,
      "Manufacturer": "SIEMENS",
      "ManufacturerModelName": "Investigational_Device_7T",
      "Modality": "MR",
      "NumberOfAverages": 1.0,
      "NumberOfPhaseEncodingSteps": 91,
      "PercentPhaseFieldOfView": 100.0,
      "PercentSampling": 100.0,
      "PerformedProcedureStepStartTime": "090559.843000",
      "PhotometricInterpretation": "MONOCHROME2",
      "PixelBandwidth": 1717.0,
      "PixelRepresentation": 0,
      "PixelSpacing": [2.0, 2.0],
      "ProtocolName": "mbep2d_bold_mb2_p3_AP 2iso",
      "RepetitionTime": 1000.0,
      "Rows": 728,
      "SAR": 0.0,
      "SamplesPerPixel": 1,
      "ScanOptions": [
        "PFP",
        "FS"
],
      "ScanningSequence": "EP",
      "SequenceName": "epfid2d1_104",
      "SequenceVariant": [
        "SK",
        "SS"
],
      "SeriesDescription": "mbep2d_bold_mb2_p3_AP 2iso",
      "SeriesNumber": 15,
      "SeriesTime": "093907.968000",
      "SliceLocation": -34.947111009424,
      "SliceThickness": 2.0,
      "SmallestImagePixelValue": 0,
      "SoftwareVersions": "syngo MR B17",
      "SpacingBetweenSlices": 1.9999999584949,
      "SpecificCharacterSet": "ISO_IR 100",
      "StudyID": "1",
      "StudyTime": "090559.796000",
      "TransmitCoilName": "CFMM_8Tx32Rx",
      "VariableFlipAngleFlag": "N",
      "WindowCenterWidthExplanation": "Algo1",
      "dBdt": 0.0},
    "slices": {}
  },
  "time": {
    "samples": {
      "AcquisitionNumber": [1, 2, 3, 4, 5, 6, 7, 8, 9, 10, 11, 12, 13, 14, 15, 16, 17, 18, 19, 20, 21, 22, 23, 24, 25, 26, 27, 28, 29, 30, 31, 32, 33, 34, 35, 36, 37, 38, 39, 40, 41, 42, 43, 44, 45, 46, 47, 48, 49, 50, 51, 52, 53, 54, 55, 56, 57, 58, 59, 60, 61, 62, 63, 64, 65, 66, 67, 68, 69, 70, 71, 72, 73, 74, 75, 76, 77, 78, 79, 80, 81, 82, 83, 84, 85, 86, 87, 88, 89, 90, 91, 92, 93, 94, 95, 96, 97, 98, 99, 100, 101, 102, 103, 104, 105, 106, 107, 108, 109, 110, 111, 112, 113, 114, 115, 116, 117, 118, 119, 120, 121, 122, 123, 124, 125, 126, 127, 128, 129, 130, 131, 132, 133, 134, 135, 136, 137, 138, 139, 140, 141, 142, 143, 144, 145, 146, 147, 148, 149, 150, 151, 152, 153, 154, 155, 156, 157, 158, 159, 160, 161, 162, 163, 164, 165, 166, 167, 168, 169, 170, 171, 172, 173, 174, 175, 176, 177, 178, 179, 180, 181, 182, 183, 184, 185, 186, 187, 188, 189, 190, 191, 192, 193, 194, 195, 196, 197, 198, 199, 200, 201, 202, 203, 204, 205, 206, 207, 208, 209, 210, 211, 212, 213, 214, 215, 216, 217, 218, 219, 220, 221, 222, 223, 224, 225, 226, 227, 228, 229, 230, 231, 232, 233, 234, 235, 236, 237, 238, 239, 240, 241, 242, 243, 244, 245, 246, 247, 248, 249, 250, 251, 252, 253, 254, 255, 256, 257, 258, 259, 260, 261, 262, 263, 264, 265, 266, 267, 268, 269, 270, 271, 272, 273, 274, 275, 276, 277, 278, 279, 280, 281, 282, 283, 284, 285, 286, 287, 288, 289, 290, 291, 292, 293, 294, 295, 296, 297, 298, 299, 300, 301, 302, 303, 304, 305, 306, 307, 308, 309, 310, 311, 312, 313, 314, 315, 316, 317, 318, 319, 320, 321, 322, 323, 324, 325, 326, 327, 328, 329, 330],
      "AcquisitionTime": ["093831.277500", "093832.282500", "093833.285000", "093834.290000", "093835.295000", "093836.297500", "093837.302500", "093838.305000", "093839.310000", "093840.315000", "093841.317500", "093842.322500", "093843.325000", "093844.330000", "093845.335000", "093846.337500", "093847.342500", "093848.345000", "093849.350000", "093850.355000", "093851.357500", "093852.362500", "093853.367500", "093854.370000", "093855.375000", "093856.377500", "093857.382500", "093858.387500", "093859.390000", "093900.395000", "093901.397500", "093902.402500", "093903.407500", "093904.410000", "093905.415000", "093906.417500", "093907.422500", "093908.427500", "093909.430000", "093910.435000", "093911.437500", "093912.442500", "093913.447500", "093914.450000", "093915.455000", "093916.457500", "093917.462500", "093918.467500", "093919.470000", "093920.475000", "093921.477500", "093922.482500", "093923.487500", "093924.490000", "093925.495000", "093926.500000", "093927.502500", "093928.507500", "093929.510000", "093930.515000", "093931.520000", "093932.522500", "093933.527500", "093934.530000", "093935.535000", "093936.540000", "093937.542500", "093938.547500", "093939.550000", "093940.555000", "093941.560000", "093942.562500", "093943.567500", "093944.570000", "093945.575000", "093946.580000", "093947.582500", "093948.587500", "093949.590000", "093950.595000", "093951.600000", "093952.602500", "093953.607500", "093954.612500", "093955.615000", "093956.620000", "093957.622500", "093958.627500", "093959.632500", "094000.635000", "094001.640000", "094002.642500", "094003.647500", "094004.652500", "094005.655000", "094006.660000", "094007.662500", "094008.667500", "094009.672500", "094010.675000", "094011.680000", "094012.682500", "094013.687500", "094014.692500", "094015.695000", "094016.700000", "094017.702500", "094018.707500", "094019.712500", "094020.715000", "094021.720000", "094022.722500", "094023.727500", "094024.732500", "094025.735000", "094026.740000", "094027.745000", "094028.747500", "094029.752500", "094030.755000", "094031.760000", "094032.765000", "094033.767500", "094034.772500", "094035.775000", "094036.780000", "094037.785000", "094038.787500", "094039.792500", "094040.795000", "094041.800000", "094042.805000", "094043.807500", "094044.812500", "094045.815000", "094046.820000", "094047.825000", "094048.827500", "094049.832500", "094050.835000", "094051.840000", "094052.845000", "094053.847500", "094054.852500", "094055.857500", "094056.860000", "094057.865000", "094058.867500", "094059.872500", "094100.877500", "094101.880000", "094102.885000", "094103.887500", "094104.892500", "094105.897500", "094106.900000", "094107.905000", "094108.907500", "094109.912500", "094110.917500", "094111.920000", "094112.925000", "094113.927500", "094114.932500", "094115.937500", "094116.940000", "094117.945000", "094118.947500", "094119.952500", "094120.957500", "094121.960000", "094122.965000", "094123.967500", "094124.972500", "094125.977500", "094126.980000", "094127.985000", "094128.990000", "094129.992500", "094130.997500", "094132.000000", "094133.005000", "094134.010000", "094135.012500", "094136.017500", "094137.020000", "094138.025000", "094139.030000", "094140.032500", "094141.037500", "094142.040000", "094143.045000", "094144.050000", "094145.052500", "094146.057500", "094147.060000", "094148.065000", "094149.070000", "094150.072500", "094151.077500", "094152.080000", "094153.085000", "094154.090000", "094155.092500", "094156.097500", "094157.100000", "094158.105000", "094159.110000", "094200.112500", "094201.117500", "094202.122500", "094203.125000", "094204.130000", "094205.132500", "094206.137500", "094207.142500", "094208.145000", "094209.150000", "094210.152500", "094211.157500", "094212.162500", "094213.165000", "094214.170000", "094215.172500", "094216.177500", "094217.182500", "094218.185000", "094219.190000", "094220.192500", "094221.197500", "094222.202500", "094223.205000", "094224.210000", "094225.212500", "094226.217500", "094227.222500", "094228.225000", "094229.230000", "094230.235000", "094231.237500", "094232.242500", "094233.245000", "094234.250000", "094235.255000", "094236.257500", "094237.262500", "094238.265000", "094239.270000", "094240.275000", "094241.277500", "094242.282500", "094243.285000", "094244.290000", "094245.295000", "094246.297500", "094247.302500", "094248.305000", "094249.310000", "094250.315000", "094251.317500", "094252.322500", "094253.325000", "094254.330000", "094255.335000", "094256.337500", "094257.342500", "094258.345000", "094259.350000", "094300.355000", "094301.357500", "094302.362500", "094303.367500", "094304.370000", "094305.375000", "094306.377500", "094307.382500", "094308.387500", "094309.390000", "094310.395000", "094311.397500", "094312.402500", "094313.407500", "094314.410000", "094315.415000", "094316.417500", "094317.422500", "094318.427500", "094319.430000", "094320.435000", "094321.437500", "094322.442500", "094323.447500", "094324.450000", "094325.455000", "094326.457500", "094327.462500", "094328.467500", "094329.470000", "094330.475000", "094331.477500", "094332.482500", "094333.487500", "094334.490000", "094335.495000", "094336.500000", "094337.502500", "094338.507500", "094339.510000", "094340.515000", "094341.520000", "094342.522500", "094343.527500", "094344.530000", "094345.535000", "094346.540000", "094347.542500", "094348.547500", "094349.550000", "094350.555000", "094351.560000", "094352.562500", "094353.567500", "094354.570000", "094355.575000", "094356.580000", "094357.582500", "094358.587500", "094359.590000", "094400.595000", "094401.600000"],
      "ContentTime": ["093907.968000", "093907.968000", "093907.968000", "093907.968000", "093907.968000", "093907.968000", "093907.984000", "093907.984000", "093907.984000", "093907.984000", "093907.984000", "093907.984000", "093908.000000", "093908.000000", "093908.000000", "093908.000000", "093908.000000", "093908.000000", "093908.015000", "093908.015000", "093908.015000", "093908.015000", "093908.015000", "093908.015000", "093908.031000", "093908.031000", "093908.031000", "093908.046000", "093908.046000", "093908.046000", "093908.046000", "093908.046000", "093908.046000", "093908.046000", "093927.921000", "093927.921000", "093927.921000", "093927.937000", "093927.937000", "093927.937000", "093927.937000", "093927.937000", "093927.937000", "093927.937000", "093927.953000", "093927.953000", "093927.953000", "093927.953000", "093927.953000", "093927.953000", "093927.953000", "093927.968000", "093927.968000", "093927.968000", "093947.921000", "093947.921000", "093947.921000", "093947.921000", "093947.937000", "093947.937000", "093947.937000", "093947.937000", "093947.937000", "093947.937000", "093947.937000", "093947.953000", "093947.953000", "093947.953000", "093947.953000", "093947.953000", "093947.968000", "093947.968000", "093947.968000", "093947.968000", "093947.968000", "094007.921000", "094007.921000", "094007.921000", "094007.921000", "094007.937000", "094007.937000", "094007.937000", "094007.937000", "094007.937000", "094007.937000", "094007.937000", "094007.937000", "094007.953000", "094007.953000", "094007.953000", "094007.953000", "094007.953000", "094007.968000", "094007.968000", "094007.968000", "094047.921000", "094047.921000", "094047.921000", "094047.921000", "094047.953000", "094047.953000", "094047.953000", "094047.968000", "094047.968000", "094047.968000", "094047.968000", "094047.968000", "094047.968000", "094047.968000", "094047.984000", "094047.984000", "094047.984000", "094047.984000", "094047.984000", "094048.000000", "094048.000000", "094048.000000", "094048.000000", "094048.000000", "094048.000000", "094048.000000", "094048.015000", "094048.015000", "094048.015000", "094048.015000", "094048.015000", "094048.015000", "094048.031000", "094048.031000", "094048.031000", "094048.031000", "094048.031000", "094048.031000", "094048.031000", "094107.921000", "094107.921000", "094107.937000", "094107.937000", "094107.937000", "094107.937000", "094107.937000", "094107.937000", "094107.953000", "094107.953000", "094107.953000", "094107.953000", "094107.953000", "094107.953000", "094107.953000", "094107.953000", "094107.968000", "094107.968000", "094107.968000", "094107.968000", "094107.984000", "094147.921000", "094147.937000", "094147.937000", "094147.937000", "094147.953000", "094147.968000", "094147.968000", "094147.968000", "094147.968000", "094147.968000", "094147.968000", "094147.968000", "094147.984000", "094147.984000", "094147.984000", "094147.984000", "094147.984000", "094147.984000", "094148.000000", "094148.000000", "094148.000000", "094148.015000", "094148.015000", "094148.015000", "094148.015000", "094148.031000", "094148.031000", "094148.031000", "094148.031000", "094148.031000", "094148.031000", "094148.031000", "094148.046000", "094148.046000", "094148.046000", "094148.046000", "094148.062000", "094148.062000", "094148.062000", "094207.921000", "094207.921000", "094207.921000", "094207.921000", "094207.937000", "094207.937000", "094207.937000", "094207.937000", "094207.953000", "094207.953000", "094207.953000", "094207.953000", "094207.953000", "094207.953000", "094207.968000", "094207.968000", "094207.968000", "094207.968000", "094207.968000", "094207.968000", "094207.968000", "094227.921000", "094227.921000", "094227.921000", "094227.921000", "094227.937000", "094227.937000", "094227.937000", "094227.937000", "094227.937000", "094227.937000", "094227.937000", "094227.937000", "094227.953000", "094227.953000", "094227.953000", "094227.953000", "094227.953000", "094227.953000", "094227.953000", "094227.968000", "094247.921000", "094247.921000", "094247.937000", "094247.937000", "094247.937000", "094247.937000", "094247.937000", "094247.937000", "094247.953000", "094247.953000", "094247.953000", "094247.953000", "094247.953000", "094247.953000", "094247.953000", "094247.953000", "094247.968000", "094247.968000", "094247.968000", "094247.968000", "094327.921000", "094327.921000", "094327.921000", "094327.921000", "094327.937000", "094327.937000", "094327.937000", "094327.937000", "094327.937000", "094327.937000", "094327.953000", "094327.953000", "094327.953000", "094327.953000", "094327.953000", "094327.953000", "094327.968000", "094327.968000", "094327.968000", "094327.968000", "094327.968000", "094327.968000", "094327.968000", "094327.968000", "094327.984000", "094327.984000", "094327.984000", "094327.984000", "094327.984000", "094327.984000", "094328.000000", "094328.000000", "094328.000000", "094328.000000", "094328.000000", "094328.000000", "094328.000000", "094328.000000", "094328.015000", "094347.921000", "094347.921000", "094347.921000", "094347.921000", "094347.937000", "094347.937000", "094347.937000", "094347.937000", "094347.937000", "094347.937000", "094347.937000", "094347.937000", "094347.953000", "094347.953000", "094347.953000", "094347.953000", "094347.953000", "094347.953000", "094347.968000", "094347.968000", "094347.968000", "094407.906000", "094407.921000", "094407.921000", "094407.921000", "094407.921000", "094407.921000", "094407.921000", "094407.921000", "094407.937000", "094407.937000", "094407.937000", "094407.937000", "094407.937000", "094407.937000", "094407.937000"],
      "InstanceCreationTime": ["093907.968000", "093907.968000", "093907.968000", "093907.968000", "093907.968000", "093907.968000", "093907.984000", "093907.984000", "093907.984000", "093907.984000", "093907.984000", "093907.984000", "093908.000000", "093908.000000", "093908.000000", "093908.000000", "093908.000000", "093908.000000", "093908.015000", "093908.015000", "093908.015000", "093908.015000", "093908.015000", "093908.015000", "093908.031000", "093908.031000", "093908.031000", "093908.046000", "093908.046000", "093908.046000", "093908.046000", "093908.046000", "093908.046000", "093908.046000", "093927.921000", "093927.921000", "093927.921000", "093927.937000", "093927.937000", "093927.937000", "093927.937000", "093927.937000", "093927.937000", "093927.937000", "093927.953000", "093927.953000", "093927.953000", "093927.953000", "093927.953000", "093927.953000", "093927.953000", "093927.968000", "093927.968000", "093927.968000", "093947.921000", "093947.921000", "093947.921000", "093947.921000", "093947.937000", "093947.937000", "093947.937000", "093947.937000", "093947.937000", "093947.937000", "093947.937000", "093947.953000", "093947.953000", "093947.953000", "093947.953000", "093947.953000", "093947.968000", "093947.968000", "093947.968000", "093947.968000", "093947.968000", "094007.921000", "094007.921000", "094007.921000", "094007.921000", "094007.937000", "094007.937000", "094007.937000", "094007.937000", "094007.937000", "094007.937000", "094007.937000", "094007.937000", "094007.953000", "094007.953000", "094007.953000", "094007.953000", "094007.953000", "094007.968000", "094007.968000", "094007.968000", "094047.921000", "094047.921000", "094047.921000", "094047.921000", "094047.953000", "094047.953000", "094047.953000", "094047.968000", "094047.968000", "094047.968000", "094047.968000", "094047.968000", "094047.968000", "094047.968000", "094047.984000", "094047.984000", "094047.984000", "094047.984000", "094047.984000", "094048.000000", "094048.000000", "094048.000000", "094048.000000", "094048.000000", "094048.000000", "094048.000000", "094048.015000", "094048.015000", "094048.015000", "094048.015000", "094048.015000", "094048.015000", "094048.031000", "094048.031000", "094048.031000", "094048.031000", "094048.031000", "094048.031000", "094048.031000", "094107.921000", "094107.921000", "094107.937000", "094107.937000", "094107.937000", "094107.937000", "094107.937000", "094107.937000", "094107.953000", "094107.953000", "094107.953000", "094107.953000", "094107.953000", "094107.953000", "094107.953000", "094107.953000", "094107.968000", "094107.968000", "094107.968000", "094107.968000", "094107.984000", "094147.921000", "094147.937000", "094147.937000", "094147.937000", "094147.953000", "094147.968000", "094147.968000", "094147.968000", "094147.968000", "094147.968000", "094147.968000", "094147.968000", "094147.984000", "094147.984000", "094147.984000", "094147.984000", "094147.984000", "094147.984000", "094148.000000", "094148.000000", "094148.000000", "094148.015000", "094148.015000", "094148.015000", "094148.015000", "094148.031000", "094148.031000", "094148.031000", "094148.031000", "094148.031000", "094148.031000", "094148.031000", "094148.046000", "094148.046000", "094148.046000", "094148.046000", "094148.062000", "094148.062000", "094148.062000", "094207.921000", "094207.921000", "094207.921000", "094207.921000", "094207.937000", "094207.937000", "094207.937000", "094207.937000", "094207.953000", "094207.953000", "094207.953000", "094207.953000", "094207.953000", "094207.953000", "094207.968000", "094207.968000", "094207.968000", "094207.968000", "094207.968000", "094207.968000", "094207.968000", "094227.921000", "094227.921000", "094227.921000", "094227.921000", "094227.937000", "094227.937000", "094227.937000", "094227.937000", "094227.937000", "094227.937000", "094227.937000", "094227.937000", "094227.953000", "094227.953000", "094227.953000", "094227.953000", "094227.953000", "094227.953000", "094227.953000", "094227.968000", "094247.921000", "094247.921000", "094247.937000", "094247.937000", "094247.937000", "094247.937000", "094247.937000", "094247.937000", "094247.953000", "094247.953000", "094247.953000", "094247.953000", "094247.953000", "094247.953000", "094247.953000", "094247.953000", "094247.968000", "094247.968000", "094247.968000", "094247.968000", "094327.921000", "094327.921000", "094327.921000", "094327.921000", "094327.937000", "094327.937000", "094327.937000", "094327.937000", "094327.937000", "094327.937000", "094327.953000", "094327.953000", "094327.953000", "094327.953000", "094327.953000", "094327.953000", "094327.968000", "094327.968000", "094327.968000", "094327.968000", "094327.968000", "094327.968000", "094327.968000", "094327.968000", "094327.984000", "094327.984000", "094327.984000", "094327.984000", "094327.984000", "094327.984000", "094328.000000", "094328.000000", "094328.000000", "094328.000000", "094328.000000", "094328.000000", "094328.000000", "094328.000000", "094328.015000", "094347.921000", "094347.921000", "094347.921000", "094347.921000", "094347.937000", "094347.937000", "094347.937000", "094347.937000", "094347.937000", "094347.937000", "094347.937000", "094347.937000", "094347.953000", "094347.953000", "094347.953000", "094347.953000", "094347.953000", "094347.953000", "094347.968000", "094347.968000", "094347.968000", "094407.906000", "094407.921000", "094407.921000", "094407.921000", "094407.921000", "094407.921000", "094407.921000", "094407.921000", "094407.937000", "094407.937000", "094407.937000", "094407.937000", "094407.937000", "094407.937000", "094407.937000"],
      "InstanceNumber": [1, 2, 3, 4, 5, 6, 7, 8, 9, 10, 11, 12, 13, 14, 15, 16, 17, 18, 19, 20, 21, 22, 23, 24, 25, 26, 27, 28, 29, 30, 31, 32, 33, 34, 35, 36, 37, 38, 39, 40, 41, 42, 43, 44, 45, 46, 47, 48, 49, 50, 51, 52, 53, 54, 55, 56, 57, 58, 59, 60, 61, 62, 63, 64, 65, 66, 67, 68, 69, 70, 71, 72, 73, 74, 75, 76, 77, 78, 79, 80, 81, 82, 83, 84, 85, 86, 87, 88, 89, 90, 91, 92, 93, 94, 95, 96, 97, 98, 99, 100, 101, 102, 103, 104, 105, 106, 107, 108, 109, 110, 111, 112, 113, 114, 115, 116, 117, 118, 119, 120, 121, 122, 123, 124, 125, 126, 127, 128, 129, 130, 131, 132, 133, 134, 135, 136, 137, 138, 139, 140, 141, 142, 143, 144, 145, 146, 147, 148, 149, 150, 151, 152, 153, 154, 155, 156, 157, 158, 159, 160, 161, 162, 163, 164, 165, 166, 167, 168, 169, 170, 171, 172, 173, 174, 175, 176, 177, 178, 179, 180, 181, 182, 183, 184, 185, 186, 187, 188, 189, 190, 191, 192, 193, 194, 195, 196, 197, 198, 199, 200, 201, 202, 203, 204, 205, 206, 207, 208, 209, 210, 211, 212, 213, 214, 215, 216, 217, 218, 219, 220, 221, 222, 223, 224, 225, 226, 227, 228, 229, 230, 231, 232, 233, 234, 235, 236, 237, 238, 239, 240, 241, 242, 243, 244, 245, 246, 247, 248, 249, 250, 251, 252, 253, 254, 255, 256, 257, 258, 259, 260, 261, 262, 263, 264, 265, 266, 267, 268, 269, 270, 271, 272, 273, 274, 275, 276, 277, 278, 279, 280, 281, 282, 283, 284, 285, 286, 287, 288, 289, 290, 291, 292, 293, 294, 295, 296, 297, 298, 299, 300, 301, 302, 303, 304, 305, 306, 307, 308, 309, 310, 311, 312, 313, 314, 315, 316, 317, 318, 319, 320, 321, 322, 323, 324, 325, 326, 327, 328, 329, 330],
      "LargestImagePixelValue": [2683, 2760, 2808, 2780, 2822, 2845, 2786, 2895, 2837, 2899, 2891, 2906, 2911, 2919, 2912, 2961, 2888, 2918, 2956, 2947, 2922, 2930, 2880, 2956, 2957, 2975, 2969, 2962, 2944, 2917, 2928, 2968, 2983, 2902, 2870, 2940, 2922, 2917, 2960, 2955, 2917, 2919, 2983, 2938, 2967, 2961, 2920, 2923, 2944, 2928, 2952, 2934, 2922, 2977, 2927, 2975, 2950, 2960, 2902, 2848, 2735, 2764, 2809, 2872, 2872, 2862, 2924, 2884, 2936, 2910, 2961, 2929, 2925, 2910, 2895, 2936, 2907, 2956, 2979, 2888, 2953, 2995, 2972, 2907, 2948, 2940, 2941, 2902, 2991, 2925, 2944, 2951, 2924, 2955, 2939, 2950, 2975, 2958, 3012, 2929, 2934, 3004, 2900, 2909, 2903, 2896, 2864, 2890, 2900, 2944, 2917, 2914, 2876, 2861, 2921, 2912, 2900, 2934, 2906, 2867, 2807, 2857, 3016, 2924, 2888, 2913, 2897, 2951, 2920, 2892, 2883, 2883, 2907, 2931, 2906, 2902, 2880, 2889, 2891, 2867, 2874, 3034, 2757, 2768, 2736, 2645, 2689, 2710, 2761, 2738, 2784, 2833, 2840, 2903, 2889, 2881, 2938, 2912, 2908, 2930, 2932, 2955, 2924, 2899, 2964, 2955, 2934, 2915, 2893, 2905, 2894, 2888, 2945, 2913, 2879, 2868, 2887, 2942, 2945, 2976, 2977, 2949, 2912, 2946, 2951, 2988, 2958, 2994, 2960, 2990, 2966, 2941, 2912, 2926, 2930, 2961, 2955, 2961, 2937, 2964, 2971, 3008, 3000, 3010, 2960, 2971, 2972, 2972, 2978, 3000, 2955, 2947, 2948, 2973, 2977, 3024, 3004, 2975, 3011, 3021, 3006, 2971, 2986, 2938, 3001, 2982, 2971, 2981, 2963, 3003, 2955, 2947, 2930, 2966, 2991, 2984, 2972, 2928, 2956, 2954, 2970, 3001, 2968, 2977, 2997, 2967, 2952, 2957, 2939, 2932, 2962, 2983, 2991, 3008, 2998, 2973, 2980, 2964, 2976, 2957, 2993, 2975, 3006, 3022, 2954, 3004, 2989, 2954, 2972, 3019, 2997, 3006, 2982, 2877, 2920, 2884, 2928, 2980, 2986, 2985, 3008, 3007, 3032, 2994, 3005, 2977, 3009, 2984, 2984, 2994, 3017, 3026, 3030, 3001, 2969, 3021, 2985, 2993, 2965, 2984, 2913, 2918, 2900, 2898, 2916, 2927, 2920, 2841, 3002, 3005, 2989, 2937, 2907, 2915, 2879, 2953, 2946, 3071, 2966, 2955, 3007, 2921, 2954, 2913, 2921, 2923, 2947, 2896, 2917, 2916],
      "WindowCenter": [474.0, 474.0, 473.0, 472.0, 472.0, 471.0, 470.0, 472.0, 470.0, 471.0, 470.0, 470.0, 472.0, 473.0, 474.0, 475.0, 473.0, 474.0, 474.0, 474.0, 474.0, 473.0, 472.0, 472.0, 472.0, 473.0, 473.0, 474.0, 473.0, 474.0, 474.0, 475.0, 476.0, 475.0, 475.0, 475.0, 475.0, 475.0, 475.0, 474.0, 473.0, 472.0, 473.0, 472.0, 472.0, 472.0, 473.0, 474.0, 474.0, 474.0, 475.0, 474.0, 474.0, 474.0, 472.0, 473.0, 473.0, 473.0, 472.0, 472.0, 471.0, 472.0, 473.0, 474.0, 474.0, 473.0, 473.0, 473.0, 473.0, 473.0, 474.0, 473.0, 473.0, 472.0, 471.0, 472.0, 471.0, 472.0, 474.0, 473.0, 475.0, 476.0, 475.0, 474.0, 475.0, 474.0, 473.0, 472.0, 474.0, 474.0, 474.0, 474.0, 473.0, 474.0, 473.0, 473.0, 474.0, 474.0, 475.0, 475.0, 475.0, 477.0, 474.0, 473.0, 473.0, 473.0, 472.0, 473.0, 474.0, 475.0, 475.0, 474.0, 473.0, 473.0, 473.0, 473.0, 473.0, 474.0, 473.0, 472.0, 472.0, 472.0, 476.0, 474.0, 474.0, 474.0, 473.0, 473.0, 474.0, 474.0, 475.0, 474.0, 473.0, 473.0, 472.0, 473.0, 473.0, 472.0, 472.0, 471.0, 472.0, 476.0, 471.0, 472.0, 474.0, 473.0, 474.0, 473.0, 473.0, 473.0, 473.0, 473.0, 472.0, 473.0, 472.0, 472.0, 474.0, 474.0, 473.0, 473.0, 473.0, 473.0, 472.0, 473.0, 474.0, 473.0, 473.0, 473.0, 473.0, 473.0, 473.0, 473.0, 474.0, 474.0, 473.0, 472.0, 472.0, 472.0, 472.0, 472.0, 473.0, 474.0, 474.0, 475.0, 476.0, 475.0, 474.0, 474.0, 473.0, 475.0, 475.0, 476.0, 476.0, 476.0, 476.0, 476.0, 476.0, 476.0, 475.0, 475.0, 474.0, 474.0, 474.0, 475.0, 474.0, 474.0, 474.0, 474.0, 475.0, 475.0, 475.0, 475.0, 475.0, 475.0, 475.0, 476.0, 475.0, 474.0, 475.0, 477.0, 477.0, 477.0, 476.0, 476.0, 476.0, 475.0, 475.0, 476.0, 476.0, 477.0, 477.0, 475.0, 474.0, 475.0, 476.0, 477.0, 476.0, 475.0, 474.0, 473.0, 473.0, 473.0, 472.0, 473.0, 473.0, 474.0, 474.0, 474.0, 475.0, 475.0, 475.0, 475.0, 476.0, 475.0, 474.0, 474.0, 474.0, 474.0, 474.0, 473.0, 474.0, 474.0, 476.0, 476.0, 476.0, 476.0, 476.0, 475.0, 474.0, 474.0, 474.0, 474.0, 477.0, 477.0, 477.0, 477.0, 477.0, 478.0, 476.0, 476.0, 474.0, 474.0, 475.0, 474.0, 474.0, 474.0, 474.0, 474.0, 474.0, 474.0, 475.0, 476.0, 476.0, 475.0, 475.0, 476.0, 477.0, 476.0, 475.0, 475.0, 473.0, 473.0, 473.0, 472.0, 472.0, 472.0, 473.0, 471.0, 475.0, 476.0, 477.0, 476.0, 475.0, 475.0, 474.0, 473.0, 472.0, 475.0, 474.0, 474.0, 474.0, 473.0, 472.0, 471.0, 471.0, 471.0, 471.0, 471.0, 472.0, 472.0],
