{
  "AcquisitionMatrixPE": 104,
  "AcquisitionNumber": 1,
  "AcquisitionTime": "10:23:58.125000",
  "BandwidthPerPixelPhaseEncode": 43.054,
  "BaseResolution": 104,
  "CoilString": "C:E1_2",
  "ConversionSoftware": "dcm2niix",
  "ConversionSoftwareVersion": "v1.0.20191031",
  "DerivedVendorReportedEchoSpacing": 0.000669999,
  "DeviceSerialNumber": "18932",
  "DwellTime": 2.8e-06,
  "EchoTime": 0.02,
  "EffectiveEchoSpacing": 0.000223333,
  "FlipAngle": 30,
  "ImageComments": "Unaliased_MB2_PE2",
  "ImageOrientationPatientDICOM": [1, 2e-16, 0, -2e-16, 0.991671, -0.128796],
  "ImageType": [
    "ORIGINAL",
    "PRIMARY",
    "M",
    "MB",
    "ND",
    "MOSAIC"
],
  "ImagingFrequency": 297.229,
  "InPlanePhaseEncodingDirectionDICOM": "COL",
  "InstitutionAddress": "Richmond_Street_North_1151_London_409EF2_Ontario_CA_N6A_5B7",
  "InstitutionName": "Robarts_Reserch_Institute",
  "InstitutionalDepartmentName": "Department",
  "MRAcquisitionType": "2D",
  "MagneticFieldStrength": 6.98,
  "Manufacturer": "Siemens",
  "ManufacturersModelName": "Investigational_Device_7T",
  "Modality": "MR",
  "MultibandAccelerationFactor": 2,
  "ParallelReductionFactorInPlane": 3,
  "PartialFourier": 0.875,
  "PatientPosition": "HFS",
  "PercentPhaseFOV": 100,
  "PhaseEncodingDirection": "j-",
  "PhaseEncodingSteps": 91,
  "PhaseResolution": 1,
  "PixelBandwidth": 1717,
  "ProcedureStepDescription": "Diedrichsen_SeqRep4",
  "ProtocolName": "mbep2d_bold_mb2_p3_AP_2iso",
  "PulseSequenceDetails": "%CustomerSeq%_cmrr_mbep2d_bold",
  "ReceiveCoilName": "CFMM_8Tx32Rx",
  "ReconMatrixPE": 104,
  "RefLinesPE": 36,
  "RepetitionTime": 1,
  "ScanOptions": "PFP_FS",
  "ScanningSequence": "EP",
  "SequenceName": "epfid2d1_104",
  "SequenceVariant": "SK_SS",
  "SeriesDescription": "mbep2d_bold_mb2_p3_AP_2iso",
  "SeriesNumber": 30,
  "ShimSetting": [-14, 2022, 42, 1483, 7, -60, 221, -154],
  "SliceThickness": 2,
  "SliceTiming": [0, 0.2275, 0.455, 0.685, 0.9125, 0.1375, 0.365, 0.5925, 0.82, 0.045, 0.2725, 0.5025, 0.73, 0.9575, 0.1825, 0.41, 0.6375, 0.8675, 0.09, 0.32, 0.5475, 0.775, 0, 0.2275, 0.455, 0.685, 0.9125, 0.1375, 0.365, 0.5925, 0.82, 0.045, 0.2725, 0.5025, 0.73, 0.9575, 0.1825, 0.41, 0.6375, 0.8675, 0.09, 0.32, 0.5475, 0.775],
  "SoftwareVersions": "syngo_MR_B17",
  "SpacingBetweenSlices": 2,
  "StationName": "MASTER",
  "TaskName": "dsp",
  "TotalReadoutTime": 0.0230033,
  "TxRefAmp": 120,
  "dcmmeta_affine": [
    [-2.0, -4.000000067449534e-16, 5.1518237917901055e-17, 105.4527816772461],
    [-4.000000067449534e-16, 1.9833422899246216, -0.257591187953949, -113.77422332763672],
    [0.0, 0.257591187953949, 1.9833422899246216, -50.01731491088867],
    [0.0, 0.0, 0.0, 1.0]
],
  "dcmmeta_reorient_transform": [
    [0.0, -1.0, 0.0, 103.0],
    [1.0, 0.0, 0.0, 0.0],
    [0.0, 0.0, 1.0, 0.0],
    [0.0, 0.0, 0.0, 1.0]
],
  "dcmmeta_shape": [104, 104, 44, 330],
  "dcmmeta_slice_dim": 2,
  "dcmmeta_version": 0.6,
  "global": {
    "const": {
      "AcquisitionMatrix": [104, 0, 0, 104],
      "AngioFlag": "N",
      "BitsAllocated": 16,
      "BitsStored": 12,
      "Columns": 728,
      "EchoNumbers": 1,
      "EchoTime": 20.0,
      "EchoTrainLength": 1,
      "FlipAngle": 30.0,
      "HighBit": 11,
      "ImageOrientationPatient": [1.0, 2e-16, 0.0, -2e-16, 0.99167116265211, -0.1287955945062],
      "ImagePositionPatient": [-729.45278453827, -709.31284237265, 56.883027700431],
      "ImageType": [
        "ORIGINAL",
        "PRIMARY",
        "M",
        "MB",
        "ND",
        "MOSAIC"
],
      "ImagedNucleus": "1H",
      "ImagingFrequency": 297.228853,
      "InPlanePhaseEncodingDirection": "COL",
      "MRAcquisitionType": "2D",
      "MagneticFieldStrength": 6.98,
      "Manufacturer": "SIEMENS",
      "ManufacturerModelName": "Investigational_Device_7T",
      "Modality": "MR",
      "NumberOfAverages": 1.0,
      "NumberOfPhaseEncodingSteps": 91,
      "PercentPhaseFieldOfView": 100.0,
      "PercentSampling": 100.0,
      "PerformedProcedureStepStartTime": "090559.843000",
      "PhotometricInterpretation": "MONOCHROME2",
      "PixelBandwidth": 1717.0,
      "PixelRepresentation": 0,
      "PixelSpacing": [2.0, 2.0],
      "ProtocolName": "mbep2d_bold_mb2_p3_AP 2iso",
      "RepetitionTime": 1000.0,
      "Rows": 728,
      "SAR": 0.0,
      "SamplesPerPixel": 1,
      "ScanOptions": [
        "PFP",
        "FS"
],
      "ScanningSequence": "EP",
      "SequenceName": "epfid2d1_104",
      "SequenceVariant": [
        "SK",
        "SS"
],
      "SeriesDescription": "mbep2d_bold_mb2_p3_AP 2iso",
      "SeriesNumber": 30,
      "SeriesTime": "102427.953000",
      "SliceLocation": -34.947111009424,
      "SliceThickness": 2.0,
      "SmallestImagePixelValue": 0,
      "SoftwareVersions": "syngo MR B17",
      "SpacingBetweenSlices": 1.9999999584949,
      "SpecificCharacterSet": "ISO_IR 100",
      "StudyID": "1",
      "StudyTime": "090559.796000",
      "TransmitCoilName": "CFMM_8Tx32Rx",
      "VariableFlipAngleFlag": "N",
      "WindowCenterWidthExplanation": "Algo1",
      "dBdt": 0.0},
    "slices": {}
  },
  "time": {
    "samples": {
      "AcquisitionNumber": [1, 2, 3, 4, 5, 6, 7, 8, 9, 10, 11, 12, 13, 14, 15, 16, 17, 18, 19, 20, 21, 22, 23, 24, 25, 26, 27, 28, 29, 30, 31, 32, 33, 34, 35, 36, 37, 38, 39, 40, 41, 42, 43, 44, 45, 46, 47, 48, 49, 50, 51, 52, 53, 54, 55, 56, 57, 58, 59, 60, 61, 62, 63, 64, 65, 66, 67, 68, 69, 70, 71, 72, 73, 74, 75, 76, 77, 78, 79, 80, 81, 82, 83, 84, 85, 86, 87, 88, 89, 90, 91, 92, 93, 94, 95, 96, 97, 98, 99, 100, 101, 102, 103, 104, 105, 106, 107, 108, 109, 110, 111, 112, 113, 114, 115, 116, 117, 118, 119, 120, 121, 122, 123, 124, 125, 126, 127, 128, 129, 130, 131, 132, 133, 134, 135, 136, 137, 138, 139, 140, 141, 142, 143, 144, 145, 146, 147, 148, 149, 150, 151, 152, 153, 154, 155, 156, 157, 158, 159, 160, 161, 162, 163, 164, 165, 166, 167, 168, 169, 170, 171, 172, 173, 174, 175, 176, 177, 178, 179, 180, 181, 182, 183, 184, 185, 186, 187, 188, 189, 190, 191, 192, 193, 194, 195, 196, 197, 198, 199, 200, 201, 202, 203, 204, 205, 206, 207, 208, 209, 210, 211, 212, 213, 214, 215, 216, 217, 218, 219, 220, 221, 222, 223, 224, 225, 226, 227, 228, 229, 230, 231, 232, 233, 234, 235, 236, 237, 238, 239, 240, 241, 242, 243, 244, 245, 246, 247, 248, 249, 250, 251, 252, 253, 254, 255, 256, 257, 258, 259, 260, 261, 262, 263, 264, 265, 266, 267, 268, 269, 270, 271, 272, 273, 274, 275, 276, 277, 278, 279, 280, 281, 282, 283, 284, 285, 286, 287, 288, 289, 290, 291, 292, 293, 294, 295, 296, 297, 298, 299, 300, 301, 302, 303, 304, 305, 306, 307, 308, 309, 310, 311, 312, 313, 314, 315, 316, 317, 318, 319, 320, 321, 322, 323, 324, 325, 326, 327, 328, 329, 330],
      "AcquisitionTime": ["102358.125000", "102359.130000", "102400.132500", "102401.137500", "102402.140000", "102403.145000", "102404.150000", "102405.152500", "102406.157500", "102407.160000", "102408.165000", "102409.170000", "102410.172500", "102411.177500", "102412.180000", "102413.185000", "102414.190000", "102415.192500", "102416.197500", "102417.200000", "102418.205000", "102419.210000", "102420.212500", "102421.217500", "102422.222500", "102423.225000", "102424.230000", "102425.232500", "102426.237500", "102427.242500", "102428.245000", "102429.250000", "102430.252500", "102431.257500", "102432.262500", "102433.265000", "102434.270000", "102435.272500", "102436.277500", "102437.282500", "102438.285000", "102439.290000", "102440.292500", "102441.297500", "102442.302500", "102443.305000", "102444.310000", "102445.312500", "102446.317500", "102447.322500", "102448.325000", "102449.330000", "102450.332500", "102451.337500", "102452.342500", "102453.345000", "102454.350000", "102455.355000", "102456.357500", "102457.362500", "102458.365000", "102459.370000", "102500.375000", "102501.377500", "102502.382500", "102503.385000", "102504.390000", "102505.395000", "102506.397500", "102507.402500", "102508.405000", "102509.410000", "102510.415000", "102511.417500", "102512.422500", "102513.425000", "102514.430000", "102515.435000", "102516.437500", "102517.442500", "102518.445000", "102519.450000", "102520.455000", "102521.457500", "102522.462500", "102523.467500", "102524.470000", "102525.475000", "102526.477500", "102527.482500", "102528.487500", "102529.490000", "102530.495000", "102531.497500", "102532.502500", "102533.507500", "102534.510000", "102535.515000", "102536.517500", "102537.522500", "102538.527500", "102539.530000", "102540.535000", "102541.537500", "102542.542500", "102543.547500", "102544.550000", "102545.555000", "102546.557500", "102547.562500", "102548.567500", "102549.570000", "102550.575000", "102551.577500", "102552.582500", "102553.587500", "102554.590000", "102555.595000", "102556.600000", "102557.602500", "102558.607500", "102559.610000", "102600.615000", "102601.620000", "102602.622500", "102603.627500", "102604.630000", "102605.635000", "102606.640000", "102607.642500", "102608.647500", "102609.650000", "102610.655000", "102611.660000", "102612.662500", "102613.667500", "102614.670000", "102615.675000", "102616.680000", "102617.682500", "102618.687500", "102619.690000", "102620.695000", "102621.700000", "102622.702500", "102623.707500", "102624.710000", "102625.715000", "102626.720000", "102627.722500", "102628.727500", "102629.732500", "102630.735000", "102631.740000", "102632.742500", "102633.747500", "102634.752500", "102635.755000", "102636.760000", "102637.762500", "102638.767500", "102639.772500", "102640.775000", "102641.780000", "102642.782500", "102643.787500", "102644.792500", "102645.795000", "102646.800000", "102647.802500", "102648.807500", "102649.812500", "102650.815000", "102651.820000", "102652.822500", "102653.827500", "102654.832500", "102655.835000", "102656.840000", "102657.845000", "102658.847500", "102659.852500", "102700.855000", "102701.860000", "102702.865000", "102703.867500", "102704.872500", "102705.875000", "102706.880000", "102707.885000", "102708.887500", "102709.892500", "102710.895000", "102711.900000", "102712.905000", "102713.907500", "102714.912500", "102715.915000", "102716.920000", "102717.925000", "102718.927500", "102719.932500", "102720.935000", "102721.940000", "102722.945000", "102723.947500", "102724.952500", "102725.955000", "102726.960000", "102727.965000", "102728.967500", "102729.972500", "102730.977500", "102731.980000", "102732.985000", "102733.987500", "102734.992500", "102735.997500", "102737.000000", "102738.005000", "102739.007500", "102740.012500", "102741.017500", "102742.020000", "102743.025000", "102744.027500", "102745.032500", "102746.037500", "102747.040000", "102748.045000", "102749.047500", "102750.052500", "102751.057500", "102752.060000", "102753.065000", "102754.067500", "102755.072500", "102756.077500", "102757.080000", "102758.085000", "102759.087500", "102800.092500", "102801.097500", "102802.100000", "102803.105000", "102804.110000", "102805.112500", "102806.117500", "102807.120000", "102808.125000", "102809.130000", "102810.132500", "102811.137500", "102812.140000", "102813.145000", "102814.150000", "102815.152500", "102816.157500", "102817.160000", "102818.165000", "102819.170000", "102820.172500", "102821.177500", "102822.180000", "102823.185000", "102824.190000", "102825.192500", "102826.197500", "102827.200000", "102828.205000", "102829.210000", "102830.212500", "102831.217500", "102832.222500", "102833.225000", "102834.230000", "102835.232500", "102836.237500", "102837.242500", "102838.245000", "102839.250000", "102840.252500", "102841.257500", "102842.262500", "102843.265000", "102844.270000", "102845.272500", "102846.277500", "102847.282500", "102848.285000", "102849.290000", "102850.292500", "102851.297500", "102852.302500", "102853.305000", "102854.310000", "102855.312500", "102856.317500", "102857.322500", "102858.325000", "102859.330000", "102900.332500", "102901.337500", "102902.342500", "102903.345000", "102904.350000", "102905.355000", "102906.357500", "102907.362500", "102908.365000", "102909.370000", "102910.375000", "102911.377500", "102912.382500", "102913.385000", "102914.390000", "102915.395000", "102916.397500", "102917.402500", "102918.405000", "102919.410000", "102920.415000", "102921.417500", "102922.422500", "102923.425000", "102924.430000", "102925.435000", "102926.437500", "102927.442500", "102928.445000"],
      "ContentTime": ["102427.953000", "102427.968000", "102427.968000", "102427.968000", "102427.968000", "102427.968000", "102427.968000", "102427.968000", "102427.968000", "102427.984000", "102427.984000", "102427.984000", "102427.984000", "102427.984000", "102427.984000", "102427.984000", "102428.000000", "102428.000000", "102428.000000", "102428.000000", "102428.000000", "102428.000000", "102428.000000", "102428.015000", "102428.015000", "102428.015000", "102428.015000", "102428.015000", "102447.921000", "102447.921000", "102447.921000", "102447.921000", "102447.937000", "102447.937000", "102447.937000", "102447.937000", "102447.937000", "102447.937000", "102447.937000", "102447.937000", "102447.953000", "102447.953000", "102447.953000", "102447.953000", "102447.953000", "102447.953000", "102447.953000", "102447.953000", "102507.921000", "102507.937000", "102507.937000", "102507.937000", "102507.937000", "102507.937000", "102507.937000", "102507.953000", "102507.953000", "102507.953000", "102507.953000", "102507.953000", "102507.953000", "102507.953000", "102507.953000", "102507.968000", "102507.968000", "102507.968000", "102507.968000", "102507.968000", "102527.921000", "102527.921000", "102527.921000", "102527.921000", "102527.937000", "102527.937000", "102527.937000", "102527.937000", "102527.937000", "102527.937000", "102527.953000", "102527.953000", "102527.953000", "102527.953000", "102527.953000", "102527.953000", "102527.968000", "102527.968000", "102527.968000", "102527.968000", "102547.921000", "102547.921000", "102547.921000", "102547.937000", "102547.937000", "102547.937000", "102547.937000", "102547.937000", "102547.937000", "102547.953000", "102547.953000", "102547.953000", "102547.953000", "102547.953000", "102547.953000", "102547.953000", "102547.953000", "102547.968000", "102547.968000", "102547.968000", "102607.921000", "102607.921000", "102607.921000", "102607.921000", "102607.937000", "102607.937000", "102607.937000", "102607.937000", "102607.937000", "102607.937000", "102607.953000", "102607.953000", "102607.953000", "102607.953000", "102607.953000", "102607.953000", "102607.953000", "102607.953000", "102607.968000", "102607.968000", "102627.921000", "102627.921000", "102627.921000", "102627.921000", "102627.937000", "102627.937000", "102627.937000", "102627.937000", "102627.937000", "102627.937000", "102627.937000", "102627.953000", "102627.953000", "102627.953000", "102627.953000", "102627.953000", "102627.953000", "102627.953000", "102627.968000", "102627.968000", "102647.921000", "102647.921000", "102647.921000", "102647.937000", "102647.937000", "102647.937000", "102647.953000", "102647.953000", "102647.953000", "102647.953000", "102647.953000", "102647.953000", "102647.953000", "102647.968000", "102647.968000", "102647.968000", "102647.968000", "102647.968000", "102647.968000", "102647.968000", "102707.921000", "102707.921000", "102707.921000", "102707.921000", "102707.937000", "102707.937000", "102707.937000", "102707.937000", "102707.937000", "102707.937000", "102707.937000", "102707.937000", "102707.953000", "102707.953000", "102707.953000", "102707.953000", "102707.953000", "102707.953000", "102707.968000", "102707.968000", "102727.921000", "102727.921000", "102727.921000", "102727.921000", "102727.937000", "102727.937000", "102727.937000", "102727.937000", "102727.937000", "102727.937000", "102727.937000", "102727.953000", "102727.953000", "102727.953000", "102727.953000", "102727.953000", "102727.953000", "102727.968000", "102727.968000", "102727.968000", "102747.921000", "102747.921000", "102747.921000", "102747.921000", "102747.937000", "102747.937000", "102747.937000", "102747.937000", "102747.937000", "102747.937000", "102747.953000", "102747.953000", "102747.953000", "102747.953000", "102747.953000", "102747.953000", "102747.953000", "102747.968000", "102747.968000", "102747.968000", "102807.921000", "102807.921000", "102807.921000", "102807.921000", "102807.937000", "102807.937000", "102807.937000", "102807.937000", "102807.937000", "102807.953000", "102807.953000", "102807.953000", "102807.953000", "102807.953000", "102807.953000", "102807.953000", "102807.953000", "102807.968000", "102807.968000", "102807.968000", "102827.921000", "102827.921000", "102827.921000", "102827.921000", "102827.937000", "102827.937000", "102827.937000", "102827.937000", "102827.937000", "102827.953000", "102827.953000", "102827.953000", "102827.953000", "102827.953000", "102827.953000", "102827.953000", "102827.953000", "102827.968000", "102827.968000", "102827.968000", "102847.921000", "102847.921000", "102847.921000", "102847.921000", "102847.937000", "102847.937000", "102847.937000", "102847.937000", "102847.937000", "102847.937000", "102847.937000", "102847.937000", "102847.953000", "102847.953000", "102847.953000", "102847.953000", "102847.953000", "102847.953000", "102847.953000", "102847.968000", "102907.921000", "102907.921000", "102907.921000", "102907.937000", "102907.937000", "102907.937000", "102907.937000", "102907.937000", "102907.953000", "102907.953000", "102907.953000", "102907.953000", "102907.953000", "102907.953000", "102907.953000", "102907.968000", "102907.968000", "102907.968000", "102907.968000", "102907.968000", "102927.921000", "102927.921000", "102927.921000", "102927.921000", "102927.937000", "102927.937000", "102927.937000", "102927.937000", "102927.937000", "102927.937000", "102927.937000", "102927.937000", "102927.953000", "102927.953000", "102927.953000", "102927.953000", "102927.953000", "102927.968000", "102927.968000", "102927.968000", "102934.562000", "102934.562000"],
      "InstanceCreationTime": ["102427.953000", "102427.968000", "102427.968000", "102427.968000", "102427.968000", "102427.968000", "102427.968000", "102427.968000", "102427.968000", "102427.984000", "102427.984000", "102427.984000", "102427.984000", "102427.984000", "102427.984000", "102427.984000", "102428.000000", "102428.000000", "102428.000000", "102428.000000", "102428.000000", "102428.000000", "102428.000000", "102428.015000", "102428.015000", "102428.015000", "102428.015000", "102428.015000", "102447.921000", "102447.921000", "102447.921000", "102447.921000", "102447.937000", "102447.937000", "102447.937000", "102447.937000", "102447.937000", "102447.937000", "102447.937000", "102447.937000", "102447.953000", "102447.953000", "102447.953000", "102447.953000", "102447.953000", "102447.953000", "102447.953000", "102447.953000", "102507.921000", "102507.937000", "102507.937000", "102507.937000", "102507.937000", "102507.937000", "102507.937000", "102507.953000", "102507.953000", "102507.953000", "102507.953000", "102507.953000", "102507.953000", "102507.953000", "102507.953000", "102507.968000", "102507.968000", "102507.968000", "102507.968000", "102507.968000", "102527.921000", "102527.921000", "102527.921000", "102527.921000", "102527.937000", "102527.937000", "102527.937000", "102527.937000", "102527.937000", "102527.937000", "102527.953000", "102527.953000", "102527.953000", "102527.953000", "102527.953000", "102527.953000", "102527.968000", "102527.968000", "102527.968000", "102527.968000", "102547.921000", "102547.921000", "102547.921000", "102547.937000", "102547.937000", "102547.937000", "102547.937000", "102547.937000", "102547.937000", "102547.953000", "102547.953000", "102547.953000", "102547.953000", "102547.953000", "102547.953000", "102547.953000", "102547.953000", "102547.968000", "102547.968000", "102547.968000", "102607.921000", "102607.921000", "102607.921000", "102607.921000", "102607.937000", "102607.937000", "102607.937000", "102607.937000", "102607.937000", "102607.937000", "102607.953000", "102607.953000", "102607.953000", "102607.953000", "102607.953000", "102607.953000", "102607.953000", "102607.953000", "102607.968000", "102607.968000", "102627.921000", "102627.921000", "102627.921000", "102627.921000", "102627.937000", "102627.937000", "102627.937000", "102627.937000", "102627.937000", "102627.937000", "102627.937000", "102627.953000", "102627.953000", "102627.953000", "102627.953000", "102627.953000", "102627.953000", "102627.953000", "102627.968000", "102627.968000", "102647.921000", "102647.921000", "102647.921000", "102647.937000", "102647.937000", "102647.937000", "102647.953000", "102647.953000", "102647.953000", "102647.953000", "102647.953000", "102647.953000", "102647.953000", "102647.968000", "102647.968000", "102647.968000", "102647.968000", "102647.968000", "102647.968000", "102647.968000", "102707.921000", "102707.921000", "102707.921000", "102707.921000", "102707.937000", "102707.937000", "102707.937000", "102707.937000", "102707.937000", "102707.937000", "102707.937000", "102707.937000", "102707.953000", "102707.953000", "102707.953000", "102707.953000", "102707.953000", "102707.953000", "102707.968000", "102707.968000", "102727.921000", "102727.921000", "102727.921000", "102727.921000", "102727.937000", "102727.937000", "102727.937000", "102727.937000", "102727.937000", "102727.937000", "102727.937000", "102727.953000", "102727.953000", "102727.953000", "102727.953000", "102727.953000", "102727.953000", "102727.968000", "102727.968000", "102727.968000", "102747.921000", "102747.921000", "102747.921000", "102747.921000", "102747.937000", "102747.937000", "102747.937000", "102747.937000", "102747.937000", "102747.937000", "102747.953000", "102747.953000", "102747.953000", "102747.953000", "102747.953000", "102747.953000", "102747.953000", "102747.968000", "102747.968000", "102747.968000", "102807.921000", "102807.921000", "102807.921000", "102807.921000", "102807.937000", "102807.937000", "102807.937000", "102807.937000", "102807.937000", "102807.953000", "102807.953000", "102807.953000", "102807.953000", "102807.953000", "102807.953000", "102807.953000", "102807.953000", "102807.968000", "102807.968000", "102807.968000", "102827.921000", "102827.921000", "102827.921000", "102827.921000", "102827.937000", "102827.937000", "102827.937000", "102827.937000", "102827.937000", "102827.953000", "102827.953000", "102827.953000", "102827.953000", "102827.953000", "102827.953000", "102827.953000", "102827.953000", "102827.968000", "102827.968000", "102827.968000", "102847.921000", "102847.921000", "102847.921000", "102847.921000", "102847.937000", "102847.937000", "102847.937000", "102847.937000", "102847.937000", "102847.937000", "102847.937000", "102847.937000", "102847.953000", "102847.953000", "102847.953000", "102847.953000", "102847.953000", "102847.953000", "102847.953000", "102847.968000", "102907.921000", "102907.921000", "102907.921000", "102907.937000", "102907.937000", "102907.937000", "102907.937000", "102907.937000", "102907.953000", "102907.953000", "102907.953000", "102907.953000", "102907.953000", "102907.953000", "102907.953000", "102907.968000", "102907.968000", "102907.968000", "102907.968000", "102907.968000", "102927.921000", "102927.921000", "102927.921000", "102927.921000", "102927.937000", "102927.937000", "102927.937000", "102927.937000", "102927.937000", "102927.937000", "102927.937000", "102927.937000", "102927.953000", "102927.953000", "102927.953000", "102927.953000", "102927.953000", "102927.968000", "102927.968000", "102927.968000", "102934.562000", "102934.562000"],
      "InstanceNumber": [1, 2, 3, 4, 5, 6, 7, 8, 9, 10, 11, 12, 13, 14, 15, 16, 17, 18, 19, 20, 21, 22, 23, 24, 25, 26, 27, 28, 29, 30, 31, 32, 33, 34, 35, 36, 37, 38, 39, 40, 41, 42, 43, 44, 45, 46, 47, 48, 49, 50, 51, 52, 53, 54, 55, 56, 57, 58, 59, 60, 61, 62, 63, 64, 65, 66, 67, 68, 69, 70, 71, 72, 73, 74, 75, 76, 77, 78, 79, 80, 81, 82, 83, 84, 85, 86, 87, 88, 89, 90, 91, 92, 93, 94, 95, 96, 97, 98, 99, 100, 101, 102, 103, 104, 105, 106, 107, 108, 109, 110, 111, 112, 113, 114, 115, 116, 117, 118, 119, 120, 121, 122, 123, 124, 125, 126, 127, 128, 129, 130, 131, 132, 133, 134, 135, 136, 137, 138, 139, 140, 141, 142, 143, 144, 145, 146, 147, 148, 149, 150, 151, 152, 153, 154, 155, 156, 157, 158, 159, 160, 161, 162, 163, 164, 165, 166, 167, 168, 169, 170, 171, 172, 173, 174, 175, 176, 177, 178, 179, 180, 181, 182, 183, 184, 185, 186, 187, 188, 189, 190, 191, 192, 193, 194, 195, 196, 197, 198, 199, 200, 201, 202, 203, 204, 205, 206, 207, 208, 209, 210, 211, 212, 213, 214, 215, 216, 217, 218, 219, 220, 221, 222, 223, 224, 225, 226, 227, 228, 229, 230, 231, 232, 233, 234, 235, 236, 237, 238, 239, 240, 241, 242, 243, 244, 245, 246, 247, 248, 249, 250, 251, 252, 253, 254, 255, 256, 257, 258, 259, 260, 261, 262, 263, 264, 265, 266, 267, 268, 269, 270, 271, 272, 273, 274, 275, 276, 277, 278, 279, 280, 281, 282, 283, 284, 285, 286, 287, 288, 289, 290, 291, 292, 293, 294, 295, 296, 297, 298, 299, 300, 301, 302, 303, 304, 305, 306, 307, 308, 309, 310, 311, 312, 313, 314, 315, 316, 317, 318, 319, 320, 321, 322, 323, 324, 325, 326, 327, 328, 329, 330],
      "LargestImagePixelValue": [2717, 2616, 2629, 2655, 2604, 2671, 2661, 2621, 2622, 2630, 2663, 2622, 2651, 2645, 2647, 2643, 2604, 2638, 2584, 2641, 2613, 2595, 2607, 2629, 2597, 2635, 2610, 2599, 2631, 2623, 2679, 2640, 2627, 2643, 2599, 2598, 2556, 2733, 2631, 2640, 2661, 2649, 2638, 2627, 2606, 2611, 2620, 2658, 2618, 2648, 2582, 2619, 2701, 2657, 2609, 2624, 2615, 2611, 2600, 2649, 2599, 2631, 2587, 2589, 2580, 2561, 2591, 2611, 2607, 2555, 2550, 2644, 2642, 2634, 2574, 2630, 2617, 2589, 2651, 2617, 2634, 2638, 2631, 2628, 2652, 2637, 2697, 2657, 2670, 2616, 2679, 2601, 2672, 2673, 2688, 2626, 2682, 2611, 2609, 2646, 2638, 2563, 2582, 2561, 2549, 2504, 2555, 2604, 2550, 2584, 2567, 2646, 2582, 2648, 2568, 2636, 2637, 2634, 2633, 2665, 2593, 2640, 2616, 2596, 2631, 2575, 2659, 2585, 2604, 2637, 2653, 2715, 2654, 2626, 2593, 2550, 2613, 2629, 2639, 2651, 2585, 2573, 2678, 2590, 2615, 2577, 2561, 2590, 2626, 2579, 2620, 2581, 2560, 2655, 2605, 2544, 2616, 2610, 2636, 2543, 2538, 2567, 2628, 2552, 2574, 2559, 2540, 2607, 2563, 2636, 2619, 2684, 2583, 2654, 2577, 2605, 2625, 2660, 2637, 2609, 2655, 2657, 2624, 2605, 2573, 2591, 2670, 2589, 2623, 2530, 2537, 2609, 2621, 2612, 2553, 2543, 2610, 2577, 2555, 2600, 2573, 2563, 2581, 2625, 2628, 2585, 2576, 2595, 2635, 2627, 2550, 2638, 2664, 2640, 2634, 2596, 2621, 2668, 2582, 2576, 2586, 2583, 2622, 2565, 2649, 2605, 2572, 2562, 2606, 2620, 2594, 2651, 2615, 2630, 2561, 2518, 2566, 2549, 2578, 2540, 2547, 2573, 2589, 2573, 2565, 2636, 2527, 2592, 2527, 2581, 2584, 2557, 2652, 2633, 2582, 2575, 2567, 2635, 2616, 2514, 2543, 2595, 2581, 2596, 2563, 2597, 2604, 2608, 2583, 2534, 2588, 2610, 2600, 2614, 2585, 2622, 2620, 2595, 2642, 2541, 2557, 2602, 2575, 2653, 2611, 2566, 2615, 2584, 2550, 2611, 2618, 2615, 2621, 2612, 2617, 2623, 2651, 2627, 2629, 2635, 2619, 2678, 2644, 2623, 2648, 2606, 2675, 2705, 2691, 2638, 2647, 2697, 2710, 2700, 2634, 2616, 2641, 2654, 2674, 2635, 2621, 2616, 2665, 2626, 2594, 2619, 2676, 2643, 2688, 2671],
      "WindowCenter": [474.0, 473.0, 473.0, 473.0, 473.0, 474.0, 474.0, 473.0, 473.0, 473.0, 473.0, 472.0, 473.0, 474.0, 474.0, 476.0, 475.0, 476.0, 475.0, 476.0, 476.0, 476.0, 475.0, 475.0, 475.0, 475.0, 474.0, 473.0, 473.0, 472.0, 473.0, 472.0, 472.0, 473.0, 472.0, 473.0, 473.0, 476.0, 476.0, 476.0, 476.0, 476.0, 475.0, 475.0, 475.0, 474.0, 474.0, 474.0, 473.0, 474.0, 473.0, 473.0, 474.0, 475.0, 475.0, 475.0, 475.0, 474.0, 473.0, 473.0, 473.0, 473.0, 473.0, 473.0, 473.0, 473.0, 473.0, 474.0, 473.0, 473.0, 472.0, 473.0, 474.0, 474.0, 473.0, 473.0, 473.0, 472.0, 473.0, 472.0, 472.0, 473.0, 474.0, 476.0, 477.0, 478.0, 478.0, 477.0, 476.0, 475.0, 475.0, 473.0, 474.0, 475.0, 475.0, 476.0, 477.0, 475.0, 474.0, 473.0, 473.0, 473.0, 472.0, 472.0, 473.0, 473.0, 473.0, 473.0, 473.0, 472.0, 472.0, 472.0, 472.0, 473.0, 473.0, 474.0, 474.0, 473.0, 474.0, 475.0, 475.0, 476.0, 475.0, 475.0, 475.0, 474.0, 475.0, 474.0, 475.0, 475.0, 476.0, 477.0, 477.0, 476.0, 474.0, 474.0, 473.0, 473.0, 473.0, 473.0, 473.0, 473.0, 475.0, 475.0, 475.0, 474.0, 473.0, 473.0, 474.0, 473.0, 474.0, 473.0, 473.0, 474.0, 475.0, 474.0, 475.0, 476.0, 475.0, 474.0, 475.0, 475.0, 476.0, 475.0, 474.0, 473.0, 472.0, 473.0, 473.0, 475.0, 475.0, 476.0, 474.0, 474.0, 473.0, 473.0, 473.0, 473.0, 473.0, 473.0, 475.0, 477.0, 476.0, 477.0, 477.0, 476.0, 476.0, 474.0, 473.0, 471.0, 471.0, 471.0, 472.0, 472.0, 472.0, 472.0, 472.0, 471.0, 471.0, 471.0, 472.0, 472.0, 473.0, 474.0, 474.0, 474.0, 474.0, 474.0, 474.0, 473.0, 472.0, 473.0, 474.0, 474.0, 474.0, 473.0, 473.0, 473.0, 472.0, 472.0, 472.0, 471.0, 472.0, 471.0, 473.0, 473.0, 474.0, 474.0, 475.0, 475.0, 474.0, 475.0, 474.0, 473.0, 473.0, 472.0, 472.0, 472.0, 472.0, 472.0, 472.0, 472.0, 473.0, 473.0, 474.0, 476.0, 474.0, 475.0, 472.0, 472.0, 471.0, 471.0, 474.0, 474.0, 474.0, 473.0, 473.0, 473.0, 472.0, 470.0, 470.0, 471.0, 471.0, 473.0, 473.0, 474.0, 474.0, 474.0, 475.0, 475.0, 476.0, 476.0, 475.0, 475.0, 474.0, 474.0, 474.0, 474.0, 474.0, 473.0, 472.0, 473.0, 473.0, 474.0, 474.0, 474.0, 475.0, 476.0, 476.0, 476.0, 476.0, 475.0, 475.0, 475.0, 475.0, 475.0, 475.0, 475.0, 475.0, 476.0, 476.0, 476.0, 476.0, 476.0, 477.0, 477.0, 476.0, 475.0, 474.0, 473.0, 473.0, 474.0, 475.0, 475.0, 475.0, 474.0, 474.0, 473.0, 474.0, 474.0, 474.0, 473.0, 474.0, 473.0, 473.0, 473.0, 474.0, 473.0, 474.0, 474.0],
