{
  "AcquisitionMatrixPE": 104,
  "AcquisitionNumber": 1,
  "AcquisitionTime": "09:45:5.320000",
  "BandwidthPerPixelPhaseEncode": 43.054,
  "BaseResolution": 104,
  "CoilString": "C:E1_2",
  "ConversionSoftware": "dcm2niix",
  "ConversionSoftwareVersion": "v1.0.20191031",
  "DerivedVendorReportedEchoSpacing": 0.000669999,
  "DeviceSerialNumber": "18932",
  "DwellTime": 2.8e-06,
  "EchoTime": 0.02,
  "EffectiveEchoSpacing": 0.000223333,
  "FlipAngle": 30,
  "ImageComments": "Unaliased_MB2_PE2",
  "ImageOrientationPatientDICOM": [1, 2e-16, 0, -2e-16, 0.991671, -0.128796],
  "ImageType": [
    "ORIGINAL",
    "PRIMARY",
    "M",
    "MB",
    "ND",
    "MOSAIC"
],
  "ImagingFrequency": 297.229,
  "InPlanePhaseEncodingDirectionDICOM": "COL",
  "InstitutionAddress": "Richmond_Street_North_1151_London_409EF2_Ontario_CA_N6A_5B7",
  "InstitutionName": "Robarts_Reserch_Institute",
  "InstitutionalDepartmentName": "Department",
  "MRAcquisitionType": "2D",
  "MagneticFieldStrength": 6.98,
  "Manufacturer": "Siemens",
  "ManufacturersModelName": "Investigational_Device_7T",
  "Modality": "MR",
  "MultibandAccelerationFactor": 2,
  "ParallelReductionFactorInPlane": 3,
  "PartialFourier": 0.875,
  "PatientPosition": "HFS",
  "PercentPhaseFOV": 100,
  "PhaseEncodingDirection": "j-",
  "PhaseEncodingSteps": 91,
  "PhaseResolution": 1,
  "PixelBandwidth": 1717,
  "ProcedureStepDescription": "Diedrichsen_SeqRep4",
  "ProtocolName": "mbep2d_bold_mb2_p3_AP_2iso",
  "PulseSequenceDetails": "%CustomerSeq%_cmrr_mbep2d_bold",
  "ReceiveCoilName": "CFMM_8Tx32Rx",
  "ReconMatrixPE": 104,
  "RefLinesPE": 36,
  "RepetitionTime": 1,
  "ScanOptions": "PFP_FS",
  "ScanningSequence": "EP",
  "SequenceName": "epfid2d1_104",
  "SequenceVariant": "SK_SS",
  "SeriesDescription": "mbep2d_bold_mb2_p3_AP_2iso",
  "SeriesNumber": 17,
  "ShimSetting": [-14, 2022, 42, 1483, 7, -60, 221, -154],
  "SliceThickness": 2,
  "SliceTiming": [0, 0.2275, 0.455, 0.685, 0.9125, 0.1375, 0.365, 0.5925, 0.82, 0.045, 0.2725, 0.5025, 0.73, 0.9575, 0.1825, 0.41, 0.6375, 0.8675, 0.09, 0.32, 0.5475, 0.775, 0, 0.2275, 0.455, 0.685, 0.9125, 0.1375, 0.365, 0.5925, 0.82, 0.045, 0.2725, 0.5025, 0.73, 0.9575, 0.1825, 0.41, 0.6375, 0.8675, 0.09, 0.32, 0.5475, 0.775],
  "SoftwareVersions": "syngo_MR_B17",
  "SpacingBetweenSlices": 2,
  "StationName": "MASTER",
  "TaskName": "dsp",
  "TotalReadoutTime": 0.0230033,
  "TxRefAmp": 120,
  "dcmmeta_affine": [
    [-2.0, -4.000000067449534e-16, 5.1518237917901055e-17, 105.4527816772461],
    [-4.000000067449534e-16, 1.9833422899246216, -0.257591187953949, -113.77422332763672],
    [0.0, 0.257591187953949, 1.9833422899246216, -50.01731491088867],
    [0.0, 0.0, 0.0, 1.0]
],
  "dcmmeta_reorient_transform": [
    [0.0, -1.0, 0.0, 103.0],
    [1.0, 0.0, 0.0, 0.0],
    [0.0, 0.0, 1.0, 0.0],
    [0.0, 0.0, 0.0, 1.0]
],
  "dcmmeta_shape": [104, 104, 44, 330],
  "dcmmeta_slice_dim": 2,
  "dcmmeta_version": 0.6,
  "global": {
    "const": {
      "AcquisitionMatrix": [104, 0, 0, 104],
      "AngioFlag": "N",
      "BitsAllocated": 16,
      "BitsStored": 12,
      "Columns": 728,
      "EchoNumbers": 1,
      "EchoTime": 20.0,
      "EchoTrainLength": 1,
      "FlipAngle": 30.0,
      "HighBit": 11,
      "ImageOrientationPatient": [1.0, 2e-16, 0.0, -2e-16, 0.99167116265211, -0.1287955945062],
      "ImagePositionPatient": [-729.45278453827, -709.31284237265, 56.883027700431],
      "ImageType": [
        "ORIGINAL",
        "PRIMARY",
        "M",
        "MB",
        "ND",
        "MOSAIC"
],
      "ImagedNucleus": "1H",
      "ImagingFrequency": 297.228876,
      "InPlanePhaseEncodingDirection": "COL",
      "MRAcquisitionType": "2D",
      "MagneticFieldStrength": 6.98,
      "Manufacturer": "SIEMENS",
      "ManufacturerModelName": "Investigational_Device_7T",
      "Modality": "MR",
      "NumberOfAverages": 1.0,
      "NumberOfPhaseEncodingSteps": 91,
      "PercentPhaseFieldOfView": 100.0,
      "PercentSampling": 100.0,
      "PerformedProcedureStepStartTime": "090559.843000",
      "PhotometricInterpretation": "MONOCHROME2",
      "PixelBandwidth": 1717.0,
      "PixelRepresentation": 0,
      "PixelSpacing": [2.0, 2.0],
      "ProtocolName": "mbep2d_bold_mb2_p3_AP 2iso",
      "RepetitionTime": 1000.0,
      "Rows": 728,
      "SAR": 0.0,
      "SamplesPerPixel": 1,
      "ScanOptions": [
        "PFP",
        "FS"
],
      "ScanningSequence": "EP",
      "SequenceName": "epfid2d1_104",
      "SequenceVariant": [
        "SK",
        "SS"
],
      "SeriesDescription": "mbep2d_bold_mb2_p3_AP 2iso",
      "SeriesNumber": 17,
      "SeriesTime": "094540.640000",
      "SliceLocation": -34.947111009424,
      "SliceThickness": 2.0,
      "SmallestImagePixelValue": 0,
      "SoftwareVersions": "syngo MR B17",
      "SpacingBetweenSlices": 1.9999999584949,
      "SpecificCharacterSet": "ISO_IR 100",
      "StudyID": "1",
      "StudyTime": "090559.796000",
      "TransmitCoilName": "CFMM_8Tx32Rx",
      "VariableFlipAngleFlag": "N",
      "WindowCenterWidthExplanation": "Algo1",
      "dBdt": 0.0},
    "slices": {}
  },
  "time": {
    "samples": {
      "AcquisitionNumber": [1, 2, 3, 4, 5, 6, 7, 8, 9, 10, 11, 12, 13, 14, 15, 16, 17, 18, 19, 20, 21, 22, 23, 24, 25, 26, 27, 28, 29, 30, 31, 32, 33, 34, 35, 36, 37, 38, 39, 40, 41, 42, 43, 44, 45, 46, 47, 48, 49, 50, 51, 52, 53, 54, 55, 56, 57, 58, 59, 60, 61, 62, 63, 64, 65, 66, 67, 68, 69, 70, 71, 72, 73, 74, 75, 76, 77, 78, 79, 80, 81, 82, 83, 84, 85, 86, 87, 88, 89, 90, 91, 92, 93, 94, 95, 96, 97, 98, 99, 100, 101, 102, 103, 104, 105, 106, 107, 108, 109, 110, 111, 112, 113, 114, 115, 116, 117, 118, 119, 120, 121, 122, 123, 124, 125, 126, 127, 128, 129, 130, 131, 132, 133, 134, 135, 136, 137, 138, 139, 140, 141, 142, 143, 144, 145, 146, 147, 148, 149, 150, 151, 152, 153, 154, 155, 156, 157, 158, 159, 160, 161, 162, 163, 164, 165, 166, 167, 168, 169, 170, 171, 172, 173, 174, 175, 176, 177, 178, 179, 180, 181, 182, 183, 184, 185, 186, 187, 188, 189, 190, 191, 192, 193, 194, 195, 196, 197, 198, 199, 200, 201, 202, 203, 204, 205, 206, 207, 208, 209, 210, 211, 212, 213, 214, 215, 216, 217, 218, 219, 220, 221, 222, 223, 224, 225, 226, 227, 228, 229, 230, 231, 232, 233, 234, 235, 236, 237, 238, 239, 240, 241, 242, 243, 244, 245, 246, 247, 248, 249, 250, 251, 252, 253, 254, 255, 256, 257, 258, 259, 260, 261, 262, 263, 264, 265, 266, 267, 268, 269, 270, 271, 272, 273, 274, 275, 276, 277, 278, 279, 280, 281, 282, 283, 284, 285, 286, 287, 288, 289, 290, 291, 292, 293, 294, 295, 296, 297, 298, 299, 300, 301, 302, 303, 304, 305, 306, 307, 308, 309, 310, 311, 312, 313, 314, 315, 316, 317, 318, 319, 320, 321, 322, 323, 324, 325, 326, 327, 328, 329, 330],
      "AcquisitionTime": ["094505.320000", "094506.325000", "094507.327500", "094508.332500", "094509.335000", "094510.340000", "094511.345000", "094512.347500", "094513.352500", "094514.355000", "094515.360000", "094516.365000", "094517.367500", "094518.372500", "094519.375000", "094520.380000", "094521.385000", "094522.387500", "094523.392500", "094524.395000", "094525.400000", "094526.405000", "094527.407500", "094528.412500", "094529.417500", "094530.420000", "094531.425000", "094532.427500", "094533.432500", "094534.437500", "094535.440000", "094536.445000", "094537.447500", "094538.452500", "094539.457500", "094540.460000", "094541.465000", "094542.467500", "094543.472500", "094544.477500", "094545.480000", "094546.485000", "094547.487500", "094548.492500", "094549.497500", "094550.500000", "094551.505000", "094552.507500", "094553.512500", "094554.517500", "094555.520000", "094556.525000", "094557.530000", "094558.532500", "094559.537500", "094600.540000", "094601.545000", "094602.550000", "094603.552500", "094604.557500", "094605.560000", "094606.565000", "094607.570000", "094608.572500", "094609.577500", "094610.580000", "094611.585000", "094612.590000", "094613.592500", "094614.597500", "094615.600000", "094616.605000", "094617.610000", "094618.612500", "094619.617500", "094620.620000", "094621.625000", "094622.630000", "094623.632500", "094624.637500", "094625.640000", "094626.645000", "094627.650000", "094628.652500", "094629.657500", "094630.662500", "094631.665000", "094632.670000", "094633.672500", "094634.677500", "094635.682500", "094636.685000", "094637.690000", "094638.692500", "094639.697500", "094640.702500", "094641.705000", "094642.710000", "094643.712500", "094644.717500", "094645.722500", "094646.725000", "094647.730000", "094648.732500", "094649.737500", "094650.742500", "094651.745000", "094652.750000", "094653.752500", "094654.757500", "094655.762500", "094656.765000", "094657.770000", "094658.772500", "094659.777500", "094700.782500", "094701.785000", "094702.790000", "094703.795000", "094704.797500", "094705.802500", "094706.805000", "094707.810000", "094708.815000", "094709.817500", "094710.822500", "094711.825000", "094712.830000", "094713.835000", "094714.837500", "094715.842500", "094716.845000", "094717.850000", "094718.855000", "094719.857500", "094720.862500", "094721.865000", "094722.870000", "094723.875000", "094724.877500", "094725.882500", "094726.885000", "094727.890000", "094728.895000", "094729.897500", "094730.902500", "094731.907500", "094732.910000", "094733.915000", "094734.917500", "094735.922500", "094736.927500", "094737.930000", "094738.935000", "094739.937500", "094740.942500", "094741.947500", "094742.950000", "094743.955000", "094744.957500", "094745.962500", "094746.967500", "094747.970000", "094748.975000", "094749.977500", "094750.982500", "094751.987500", "094752.990000", "094753.995000", "094754.997500", "094756.002500", "094757.007500", "094758.010000", "094759.015000", "094800.017500", "094801.022500", "094802.027500", "094803.030000", "094804.035000", "094805.040000", "094806.042500", "094807.047500", "094808.050000", "094809.055000", "094810.060000", "094811.062500", "094812.067500", "094813.070000", "094814.075000", "094815.080000", "094816.082500", "094817.087500", "094818.090000", "094819.095000", "094820.100000", "094821.102500", "094822.107500", "094823.110000", "094824.115000", "094825.120000", "094826.122500", "094827.127500", "094828.130000", "094829.135000", "094830.140000", "094831.142500", "094832.147500", "094833.150000", "094834.155000", "094835.160000", "094836.162500", "094837.167500", "094838.172500", "094839.175000", "094840.180000", "094841.182500", "094842.187500", "094843.192500", "094844.195000", "094845.200000", "094846.202500", "094847.207500", "094848.212500", "094849.215000", "094850.220000", "094851.222500", "094852.227500", "094853.232500", "094854.235000", "094855.240000", "094856.242500", "094857.247500", "094858.252500", "094859.255000", "094900.260000", "094901.262500", "094902.267500", "094903.272500", "094904.275000", "094905.280000", "094906.285000", "094907.287500", "094908.292500", "094909.295000", "094910.300000", "094911.305000", "094912.307500", "094913.312500", "094914.315000", "094915.320000", "094916.325000", "094917.327500", "094918.332500", "094919.335000", "094920.340000", "094921.345000", "094922.347500", "094923.352500", "094924.355000", "094925.360000", "094926.365000", "094927.367500", "094928.372500", "094929.375000", "094930.380000", "094931.385000", "094932.387500", "094933.392500", "094934.395000", "094935.400000", "094936.405000", "094937.407500", "094938.412500", "094939.417500", "094940.420000", "094941.425000", "094942.427500", "094943.432500", "094944.437500", "094945.440000", "094946.445000", "094947.447500", "094948.452500", "094949.457500", "094950.460000", "094951.465000", "094952.467500", "094953.472500", "094954.477500", "094955.480000", "094956.485000", "094957.487500", "094958.492500", "094959.497500", "095000.500000", "095001.505000", "095002.507500", "095003.512500", "095004.517500", "095005.520000", "095006.525000", "095007.530000", "095008.532500", "095009.537500", "095010.540000", "095011.545000", "095012.550000", "095013.552500", "095014.557500", "095015.560000", "095016.565000", "095017.570000", "095018.572500", "095019.577500", "095020.580000", "095021.585000", "095022.590000", "095023.592500", "095024.597500", "095025.600000", "095026.605000", "095027.610000", "095028.612500", "095029.617500", "095030.620000", "095031.625000", "095032.630000", "095033.632500", "095034.637500", "095035.640000"],
      "ContentTime": ["094540.640000", "094540.640000", "094540.656000", "094540.656000", "094540.656000", "094540.656000", "094540.656000", "094540.656000", "094540.656000", "094540.671000", "094540.671000", "094540.671000", "094540.671000", "094540.687000", "094540.687000", "094540.687000", "094540.703000", "094540.703000", "094540.703000", "094540.718000", "094540.718000", "094540.718000", "094540.718000", "094540.718000", "094540.718000", "094540.718000", "094540.734000", "094540.734000", "094540.734000", "094540.734000", "094540.734000", "094540.734000", "094540.734000", "094600.609000", "094600.609000", "094600.625000", "094600.625000", "094600.625000", "094600.625000", "094600.625000", "094600.625000", "094600.625000", "094600.640000", "094600.640000", "094600.640000", "094600.640000", "094600.640000", "094600.640000", "094600.640000", "094600.656000", "094600.656000", "094600.656000", "094600.656000", "094620.609000", "094620.609000", "094620.609000", "094620.609000", "094620.625000", "094620.625000", "094620.625000", "094620.625000", "094620.625000", "094620.640000", "094620.640000", "094620.640000", "094620.640000", "094620.640000", "094620.640000", "094620.640000", "094620.640000", "094620.656000", "094620.656000", "094620.656000", "094640.609000", "094640.609000", "094640.609000", "094640.609000", "094640.625000", "094640.625000", "094640.625000", "094640.625000", "094640.625000", "094640.640000", "094640.640000", "094640.640000", "094640.640000", "094640.640000", "094640.640000", "094640.640000", "094640.656000", "094640.656000", "094640.656000", "094640.656000", "094700.609000", "094700.609000", "094700.609000", "094700.609000", "094700.625000", "094700.625000", "094700.625000", "094700.625000", "094700.625000", "094700.625000", "094700.625000", "094700.640000", "094700.640000", "094700.640000", "094700.640000", "094700.640000", "094700.640000", "094700.640000", "094700.640000", "094700.656000", "094720.609000", "094720.609000", "094720.609000", "094720.625000", "094720.625000", "094720.625000", "094720.625000", "094720.625000", "094720.625000", "094720.625000", "094720.640000", "094720.640000", "094720.640000", "094720.640000", "094720.640000", "094720.640000", "094720.640000", "094720.656000", "094720.656000", "094720.656000", "094740.609000", "094740.609000", "094740.609000", "094740.625000", "094740.625000", "094740.625000", "094740.625000", "094740.625000", "094740.640000", "094740.640000", "094740.640000", "094740.640000", "094740.640000", "094740.640000", "094740.640000", "094740.640000", "094740.656000", "094740.656000", "094740.656000", "094740.656000", "094800.609000", "094800.609000", "094800.609000", "094800.625000", "094800.625000", "094800.640000", "094800.640000", "094800.640000", "094800.640000", "094800.640000", "094800.640000", "094800.640000", "094800.640000", "094800.656000", "094800.656000", "094800.656000", "094800.656000", "094800.656000", "094800.656000", "094800.671000", "094820.609000", "094820.609000", "094820.609000", "094820.625000", "094820.625000", "094820.625000", "094820.625000", "094820.625000", "094820.625000", "094820.640000", "094820.640000", "094820.640000", "094820.640000", "094820.656000", "094820.656000", "094820.656000", "094820.656000", "094820.656000", "094820.656000", "094820.656000", "094840.609000", "094840.609000", "094840.609000", "094840.609000", "094840.625000", "094840.625000", "094840.625000", "094840.625000", "094840.625000", "094840.625000", "094840.625000", "094840.625000", "094840.640000", "094840.640000", "094840.640000", "094840.640000", "094840.640000", "094840.640000", "094840.640000", "094840.656000", "094900.609000", "094900.609000", "094900.609000", "094900.625000", "094900.625000", "094900.625000", "094900.625000", "094900.625000", "094900.625000", "094900.625000", "094900.625000", "094900.640000", "094900.640000", "094900.640000", "094900.640000", "094900.640000", "094900.640000", "094900.640000", "094900.656000", "094900.656000", "094920.609000", "094920.609000", "094920.609000", "094920.609000", "094920.625000", "094920.625000", "094920.625000", "094920.625000", "094920.625000", "094920.625000", "094920.640000", "094920.640000", "094920.640000", "094920.640000", "094920.640000", "094920.640000", "094920.640000", "094920.656000", "094920.656000", "094920.656000", "094940.609000", "094940.609000", "094940.609000", "094940.625000", "094940.625000", "094940.625000", "094940.625000", "094940.625000", "094940.625000", "094940.625000", "094940.625000", "094940.640000", "094940.640000", "094940.640000", "094940.640000", "094940.640000", "094940.640000", "094940.640000", "094940.656000", "094940.656000", "095000.609000", "095000.609000", "095000.609000", "095000.609000", "095000.625000", "095000.625000", "095000.625000", "095000.625000", "095000.640000", "095000.640000", "095000.640000", "095000.640000", "095000.640000", "095000.640000", "095000.656000", "095000.656000", "095000.656000", "095000.656000", "095000.656000", "095000.656000", "095020.609000", "095020.609000", "095020.609000", "095020.609000", "095020.625000", "095020.625000", "095020.625000", "095020.625000", "095020.625000", "095020.625000", "095020.625000", "095020.625000", "095020.640000", "095020.640000", "095020.640000", "095020.640000", "095020.640000", "095020.640000", "095020.656000", "095020.656000", "095041.703000", "095041.703000", "095041.703000", "095041.718000", "095041.718000", "095041.718000", "095041.718000", "095041.718000", "095041.718000", "095041.718000", "095041.734000", "095041.734000", "095041.734000", "095041.734000", "095041.734000", "095041.734000", "095041.734000"],
      "InstanceCreationTime": ["094540.640000", "094540.640000", "094540.656000", "094540.656000", "094540.656000", "094540.656000", "094540.656000", "094540.656000", "094540.656000", "094540.671000", "094540.671000", "094540.671000", "094540.671000", "094540.687000", "094540.687000", "094540.687000", "094540.703000", "094540.703000", "094540.703000", "094540.718000", "094540.718000", "094540.718000", "094540.718000", "094540.718000", "094540.718000", "094540.718000", "094540.734000", "094540.734000", "094540.734000", "094540.734000", "094540.734000", "094540.734000", "094540.734000", "094600.609000", "094600.609000", "094600.625000", "094600.625000", "094600.625000", "094600.625000", "094600.625000", "094600.625000", "094600.625000", "094600.640000", "094600.640000", "094600.640000", "094600.640000", "094600.640000", "094600.640000", "094600.640000", "094600.656000", "094600.656000", "094600.656000", "094600.656000", "094620.609000", "094620.609000", "094620.609000", "094620.609000", "094620.625000", "094620.625000", "094620.625000", "094620.625000", "094620.625000", "094620.640000", "094620.640000", "094620.640000", "094620.640000", "094620.640000", "094620.640000", "094620.640000", "094620.640000", "094620.656000", "094620.656000", "094620.656000", "094640.609000", "094640.609000", "094640.609000", "094640.609000", "094640.625000", "094640.625000", "094640.625000", "094640.625000", "094640.625000", "094640.640000", "094640.640000", "094640.640000", "094640.640000", "094640.640000", "094640.640000", "094640.640000", "094640.656000", "094640.656000", "094640.656000", "094640.656000", "094700.609000", "094700.609000", "094700.609000", "094700.609000", "094700.625000", "094700.625000", "094700.625000", "094700.625000", "094700.625000", "094700.625000", "094700.625000", "094700.640000", "094700.640000", "094700.640000", "094700.640000", "094700.640000", "094700.640000", "094700.640000", "094700.640000", "094700.656000", "094720.609000", "094720.609000", "094720.609000", "094720.625000", "094720.625000", "094720.625000", "094720.625000", "094720.625000", "094720.625000", "094720.625000", "094720.640000", "094720.640000", "094720.640000", "094720.640000", "094720.640000", "094720.640000", "094720.640000", "094720.656000", "094720.656000", "094720.656000", "094740.609000", "094740.609000", "094740.609000", "094740.625000", "094740.625000", "094740.625000", "094740.625000", "094740.625000", "094740.640000", "094740.640000", "094740.640000", "094740.640000", "094740.640000", "094740.640000", "094740.640000", "094740.640000", "094740.656000", "094740.656000", "094740.656000", "094740.656000", "094800.609000", "094800.609000", "094800.609000", "094800.625000", "094800.625000", "094800.640000", "094800.640000", "094800.640000", "094800.640000", "094800.640000", "094800.640000", "094800.640000", "094800.640000", "094800.656000", "094800.656000", "094800.656000", "094800.656000", "094800.656000", "094800.656000", "094800.671000", "094820.609000", "094820.609000", "094820.609000", "094820.625000", "094820.625000", "094820.625000", "094820.625000", "094820.625000", "094820.625000", "094820.640000", "094820.640000", "094820.640000", "094820.640000", "094820.656000", "094820.656000", "094820.656000", "094820.656000", "094820.656000", "094820.656000", "094820.656000", "094840.609000", "094840.609000", "094840.609000", "094840.609000", "094840.625000", "094840.625000", "094840.625000", "094840.625000", "094840.625000", "094840.625000", "094840.625000", "094840.625000", "094840.640000", "094840.640000", "094840.640000", "094840.640000", "094840.640000", "094840.640000", "094840.640000", "094840.656000", "094900.609000", "094900.609000", "094900.609000", "094900.625000", "094900.625000", "094900.625000", "094900.625000", "094900.625000", "094900.625000", "094900.625000", "094900.625000", "094900.640000", "094900.640000", "094900.640000", "094900.640000", "094900.640000", "094900.640000", "094900.640000", "094900.656000", "094900.656000", "094920.609000", "094920.609000", "094920.609000", "094920.609000", "094920.625000", "094920.625000", "094920.625000", "094920.625000", "094920.625000", "094920.625000", "094920.640000", "094920.640000", "094920.640000", "094920.640000", "094920.640000", "094920.640000", "094920.640000", "094920.656000", "094920.656000", "094920.656000", "094940.609000", "094940.609000", "094940.609000", "094940.625000", "094940.625000", "094940.625000", "094940.625000", "094940.625000", "094940.625000", "094940.625000", "094940.625000", "094940.640000", "094940.640000", "094940.640000", "094940.640000", "094940.640000", "094940.640000", "094940.640000", "094940.656000", "094940.656000", "095000.609000", "095000.609000", "095000.609000", "095000.609000", "095000.625000", "095000.625000", "095000.625000", "095000.625000", "095000.640000", "095000.640000", "095000.640000", "095000.640000", "095000.640000", "095000.640000", "095000.656000", "095000.656000", "095000.656000", "095000.656000", "095000.656000", "095000.656000", "095020.609000", "095020.609000", "095020.609000", "095020.609000", "095020.625000", "095020.625000", "095020.625000", "095020.625000", "095020.625000", "095020.625000", "095020.625000", "095020.625000", "095020.640000", "095020.640000", "095020.640000", "095020.640000", "095020.640000", "095020.640000", "095020.656000", "095020.656000", "095041.703000", "095041.703000", "095041.703000", "095041.718000", "095041.718000", "095041.718000", "095041.718000", "095041.718000", "095041.718000", "095041.718000", "095041.734000", "095041.734000", "095041.734000", "095041.734000", "095041.734000", "095041.734000", "095041.734000"],
      "InstanceNumber": [1, 2, 3, 4, 5, 6, 7, 8, 9, 10, 11, 12, 13, 14, 15, 16, 17, 18, 19, 20, 21, 22, 23, 24, 25, 26, 27, 28, 29, 30, 31, 32, 33, 34, 35, 36, 37, 38, 39, 40, 41, 42, 43, 44, 45, 46, 47, 48, 49, 50, 51, 52, 53, 54, 55, 56, 57, 58, 59, 60, 61, 62, 63, 64, 65, 66, 67, 68, 69, 70, 71, 72, 73, 74, 75, 76, 77, 78, 79, 80, 81, 82, 83, 84, 85, 86, 87, 88, 89, 90, 91, 92, 93, 94, 95, 96, 97, 98, 99, 100, 101, 102, 103, 104, 105, 106, 107, 108, 109, 110, 111, 112, 113, 114, 115, 116, 117, 118, 119, 120, 121, 122, 123, 124, 125, 126, 127, 128, 129, 130, 131, 132, 133, 134, 135, 136, 137, 138, 139, 140, 141, 142, 143, 144, 145, 146, 147, 148, 149, 150, 151, 152, 153, 154, 155, 156, 157, 158, 159, 160, 161, 162, 163, 164, 165, 166, 167, 168, 169, 170, 171, 172, 173, 174, 175, 176, 177, 178, 179, 180, 181, 182, 183, 184, 185, 186, 187, 188, 189, 190, 191, 192, 193, 194, 195, 196, 197, 198, 199, 200, 201, 202, 203, 204, 205, 206, 207, 208, 209, 210, 211, 212, 213, 214, 215, 216, 217, 218, 219, 220, 221, 222, 223, 224, 225, 226, 227, 228, 229, 230, 231, 232, 233, 234, 235, 236, 237, 238, 239, 240, 241, 242, 243, 244, 245, 246, 247, 248, 249, 250, 251, 252, 253, 254, 255, 256, 257, 258, 259, 260, 261, 262, 263, 264, 265, 266, 267, 268, 269, 270, 271, 272, 273, 274, 275, 276, 277, 278, 279, 280, 281, 282, 283, 284, 285, 286, 287, 288, 289, 290, 291, 292, 293, 294, 295, 296, 297, 298, 299, 300, 301, 302, 303, 304, 305, 306, 307, 308, 309, 310, 311, 312, 313, 314, 315, 316, 317, 318, 319, 320, 321, 322, 323, 324, 325, 326, 327, 328, 329, 330],
      "LargestImagePixelValue": [2926, 2855, 2856, 2809, 2824, 2851, 2827, 2772, 2806, 2840, 2834, 2779, 2796, 2800, 2775, 2828, 2796, 2892, 2853, 2803, 2817, 2781, 2788, 2811, 2856, 2809, 2836, 2806, 2817, 2831, 2919, 2877, 2782, 2811, 2816, 2874, 2824, 2756, 2864, 2841, 2859, 2862, 2784, 2814, 2781, 2889, 2868, 2839, 2791, 2905, 2893, 2871, 2842, 2859, 2838, 2889, 2864, 2817, 2825, 2868, 2858, 2828, 2834, 2832, 2862, 2896, 2871, 2861, 2821, 2921, 2911, 2863, 2872, 2835, 2846, 2866, 2860, 2850, 2862, 2882, 2856, 2843, 2818, 2799, 2853, 2866, 2850, 2860, 2857, 2878, 2909, 2809, 2821, 2854, 2842, 2923, 2859, 2801, 2876, 2841, 2903, 2841, 2810, 2877, 2868, 2935, 2871, 2855, 2867, 2903, 2917, 2872, 2906, 2896, 2877, 2894, 2904, 2812, 2838, 2869, 2815, 2840, 2836, 2866, 2858, 2871, 2811, 2797, 2838, 2847, 2893, 2916, 2841, 2811, 2905, 2865, 2871, 2816, 2867, 2838, 2888, 2860, 2894, 2887, 2939, 2911, 2854, 2864, 2874, 2891, 2906, 2901, 2862, 2904, 2902, 2907, 2843, 2820, 2878, 2870, 2871, 2870, 2846, 2888, 2901, 2852, 2910, 2812, 2840, 2894, 2887, 2912, 2858, 2890, 2895, 2848, 2831, 2865, 2803, 2862, 2921, 2835, 2796, 2781, 2832, 2898, 2862, 2895, 2867, 2937, 2909, 2799, 2819, 2879, 2875, 2875, 2880, 2814, 2863, 2881, 2869, 2815, 2858, 2826, 2912, 2907, 2826, 2860, 2872, 2881, 2902, 2837, 2827, 2833, 2839, 2879, 2843, 2872, 2793, 2893, 2881, 2823, 2868, 2871, 2877, 2913, 2833, 2861, 2901, 2878, 2835, 2899, 2830, 2835, 2951, 2880, 2906, 2893, 2848, 2861, 2876, 2866, 2863, 2843, 2855, 2889, 2856, 2900, 2837, 2881, 2965, 2898, 2856, 2855, 2891, 2924, 2877, 2899, 2906, 2900, 2887, 2909, 2853, 2862, 2878, 2886, 2834, 2827, 2853, 2854, 2826, 2797, 2795, 2805, 2852, 2870, 2855, 2788, 2820, 2826, 2876, 2853, 2812, 2809, 2911, 2815, 2825, 2836, 2798, 2840, 2848, 2819, 2742, 2748, 2717, 2765, 2810, 2761, 2837, 2804, 2799, 2773, 2785, 2801, 2781, 2815, 2840, 2783, 2782, 2854, 2887, 2907, 2881, 2849, 2831, 2876, 2789, 2794, 2810, 2807, 2861, 2896, 2874, 2842, 2836, 2864, 2830, 2867, 2881, 2877],
      "WindowCenter": [476.0, 474.0, 473.0, 472.0, 472.0, 472.0, 472.0, 471.0, 471.0, 472.0, 471.0, 470.0, 470.0, 471.0, 472.0, 474.0, 473.0, 475.0, 473.0, 472.0, 472.0, 472.0, 472.0, 473.0, 472.0, 471.0, 472.0, 471.0, 471.0, 471.0, 472.0, 471.0, 471.0, 472.0, 473.0, 474.0, 473.0, 473.0, 474.0, 474.0, 474.0, 472.0, 471.0, 471.0, 470.0, 472.0, 472.0, 471.0, 471.0, 473.0, 473.0, 473.0, 472.0, 472.0, 471.0, 473.0, 473.0, 473.0, 474.0, 475.0, 475.0, 474.0, 473.0, 473.0, 472.0, 473.0, 472.0, 471.0, 471.0, 472.0, 472.0, 472.0, 474.0, 475.0, 475.0, 475.0, 474.0, 474.0, 473.0, 474.0, 474.0, 475.0, 476.0, 475.0, 475.0, 474.0, 473.0, 473.0, 472.0, 473.0, 474.0, 473.0, 474.0, 474.0, 472.0, 473.0, 471.0, 471.0, 473.0, 473.0, 474.0, 473.0, 471.0, 472.0, 471.0, 471.0, 470.0, 470.0, 470.0, 471.0, 471.0, 471.0, 472.0, 472.0, 471.0, 472.0, 473.0, 473.0, 474.0, 475.0, 473.0, 473.0, 472.0, 471.0, 472.0, 473.0, 472.0, 471.0, 470.0, 469.0, 469.0, 469.0, 468.0, 468.0, 470.0, 470.0, 470.0, 470.0, 470.0, 469.0, 469.0, 469.0, 469.0, 470.0, 472.0, 473.0, 472.0, 472.0, 472.0, 472.0, 472.0, 473.0, 473.0, 475.0, 474.0, 474.0, 473.0, 473.0, 473.0, 473.0, 474.0, 474.0, 474.0, 474.0, 473.0, 472.0, 473.0, 472.0, 472.0, 473.0, 474.0, 475.0, 475.0, 476.0, 476.0, 474.0, 474.0, 474.0, 473.0, 475.0, 477.0, 476.0, 475.0, 474.0, 474.0, 474.0, 473.0, 474.0, 474.0, 475.0, 475.0, 473.0, 473.0, 474.0, 474.0, 474.0, 474.0, 474.0, 475.0, 475.0, 473.0, 472.0, 473.0, 472.0, 473.0, 473.0, 472.0, 473.0, 473.0, 474.0, 474.0, 474.0, 474.0, 474.0, 473.0, 473.0, 473.0, 474.0, 474.0, 475.0, 474.0, 472.0, 473.0, 473.0, 473.0, 475.0, 474.0, 474.0, 474.0, 474.0, 473.0, 474.0, 473.0, 472.0, 474.0, 474.0, 475.0, 474.0, 473.0, 473.0, 473.0, 474.0, 474.0, 476.0, 477.0, 477.0, 477.0, 476.0, 475.0, 475.0, 476.0, 475.0, 474.0, 474.0, 474.0, 475.0, 474.0, 474.0, 475.0, 474.0, 474.0, 474.0, 473.0, 474.0, 475.0, 475.0, 474.0, 474.0, 475.0, 475.0, 475.0, 475.0, 475.0, 474.0, 474.0, 474.0, 474.0, 472.0, 472.0, 472.0, 472.0, 473.0, 475.0, 476.0, 477.0, 475.0, 474.0, 473.0, 472.0, 471.0, 471.0, 473.0, 472.0, 472.0, 471.0, 474.0, 475.0, 473.0, 473.0, 473.0, 471.0, 470.0, 469.0, 467.0, 466.0, 465.0, 466.0, 465.0, 466.0, 467.0, 469.0, 468.0, 468.0, 469.0, 470.0, 470.0, 469.0, 469.0, 470.0, 470.0, 472.0, 473.0, 472.0, 472.0, 472.0, 472.0, 472.0, 471.0, 472.0, 472.0],
