{
    "AcquisitionMatrixPE": 84,
    "AcquisitionNumber": 1,
    "AcquisitionTime": "12:47:8.080000",
    "BaseResolution": 168,
    "CoilString": "C:E1_2",
    "ConversionSoftware": "dcm2niix",
    "ConversionSoftwareVersion": "v1.0.20191031",
    "DeviceSerialNumber": "18932",
    "DwellTime": 4.9e-06,
    "EchoNumber": 2,
    "EchoTime": 0.0051,
    "EchoTime1": 0.00408,
    "EchoTime2": 0.0051,
    "FlipAngle": 35,
    "ImageOrientationPatientDICOM": [
        1,
        -2.05103e-10,
        0,
        2.05103e-10,
        1,
        0
    ],
    "ImageType": [
        "ORIGINAL",
        "PRIMARY",
        "P",
        "ND",
        "PHASE"
    ],
    "ImagingFrequency": 297.229,
    "InPlanePhaseEncodingDirectionDICOM": "ROW",
    "InstitutionAddress": "Richmond_Street_North_1151_London_409EF2_Ontario_CA_N6A_5B7",
    "InstitutionName": "Robarts_Reserch_Institute",
    "InstitutionalDepartmentName": "Department",
    "MRAcquisitionType": "2D",
    "MagneticFieldStrength": 6.98,
    "Manufacturer": "Siemens",
    "ManufacturersModelName": "Investigational_Device_7T",
    "Modality": "MR",
    "PartialFourier": 0.75,
    "PatientPosition": "HFS",
    "PercentPhaseFOV": 100,
    "PhaseEncodingDirection": "i",
    "PhaseEncodingSteps": 63,
    "PhaseResolution": 0.5,
    "PixelBandwidth": 607,
    "ProcedureStepDescription": "Diedrichsen_SeqRep4",
    "ProtocolName": "gre_field_mapping",
    "PulseSequenceDetails": "%SiemensSeq%_gre_field_mapping",
    "ReceiveCoilName": "CFMM_8Tx32Rx",
    "ReconMatrixPE": 168,
    "RepetitionTime": 0.475,
    "ScanOptions": "PFP",
    "ScanningSequence": "GR",
    "SequenceName": "fm2d2r",
    "SequenceVariant": "SP",
    "SeriesDescription": "gre_field_mapping",
    "SeriesNumber": 36,
    "ShimSetting": [
        17,
        2079,
        27,
        1472,
        -66,
        -420,
        219,
        -110
    ],
    "SliceThickness": 2.5,
    "SliceTiming": [
        0.23438,
        0,
        0.24219,
        0,
        0.25,
        0.00781,
        0.25781,
        0.01562,
        0.26562,
        0.02344,
        0.27344,
        0.03125,
        0.28125,
        0.03906,
        0.28906,
        0.04688,
        0.29688,
        0.05469,
        0.30469,
        0.0625,
        0.3125,
        0.07031,
        0.3125,
        0.07812,
        0.32031,
        0.08594,
        0.32812,
        0.09375,
        0.33594,
        0.10156,
        0.34375,
        0.10938,
        0.35156,
        0.11719,
        0.35938,
        0.125,
        0.36719,
        0.13281,
        0.375,
        0.14062,
        0.38281,
        0.14844,
        0.39062,
        0.15625,
        0.39844,
        0.16406,
        0.40625,
        0.17188,
        0.41406,
        0.17969,
        0.42188,
        0.1875,
        0.42969,
        0.1875,
        0.4375,
        0.19531,
        0.44531,
        0.20312,
        0.45312,
        0.21094,
        0.46094,
        0.21875,
        0.46875,
        0.22656
    ],
    "SoftwareVersions": "syngo_MR_B17",
    "SpacingBetweenSlices": 2.5,
    "StationName": "MASTER",
    "TxRefAmp": 112.832,
    "dcmmeta_affine": [
        [
            -1.25,
            2.5637925116228644e-10,
            0.0,
            105.54801177978516
        ],
        [
            2.5637925116228644e-10,
            1.25,
            0.0,
            -114.76776885986328
        ],
        [
            0.0,
            0.0,
            2.5,
            -94.72627258300781
        ],
        [
            0.0,
            0.0,
            0.0,
            1.0
        ]
    ],
    "dcmmeta_reorient_transform": [
        [
            0.0,
            -1.0,
            0.0,
            167.0
        ],
        [
            1.0,
            0.0,
            0.0,
            0.0
        ],
        [
            0.0,
            0.0,
            -1.0,
            63.0
        ],
        [
            0.0,
            0.0,
            0.0,
            1.0
        ]
    ],
    "dcmmeta_shape": [
        168,
        168,
        64
    ],
    "dcmmeta_slice_dim": 2,
    "dcmmeta_version": 0.6,
    "global": {
        "const": {
            "AcquisitionMatrix": [
                0,
                168,
                84,
                0
            ],
            "AcquisitionNumber": 1,
            "AngioFlag": "N",
            "BitsAllocated": 16,
            "BitsStored": 12,
            "Columns": 168,
            "EchoNumbers": 2,
            "EchoTime": 5.1,
            "EchoTrainLength": 1,
            "FlipAngle": 35.0,
            "HighBit": 11,
            "ImageOrientationPatient": [
                1.0,
                -2.051034e-10,
                0.0,
                2.051034e-10,
                1.0,
                0.0
            ],
            "ImageType": [
                "ORIGINAL",
                "PRIMARY",
                "P",
                "ND"
            ],
            "ImagedNucleus": "1H",
            "ImagingFrequency": 297.228858,
            "InPlanePhaseEncodingDirection": "ROW",
            "MRAcquisitionType": "2D",
            "MagneticFieldStrength": 6.98,
            "Manufacturer": "SIEMENS",
            "ManufacturerModelName": "Investigational_Device_7T",
            "Modality": "MR",
            "NumberOfAverages": 1.0,
            "NumberOfPhaseEncodingSteps": 63,
            "PercentPhaseFieldOfView": 100.0,
            "PercentSampling": 50.0,
            "PerformedProcedureStepStartTime": "112012.734000",
            "PhotometricInterpretation": "MONOCHROME2",
            "PixelBandwidth": 607.0,
            "PixelRepresentation": 0,
            "PixelSpacing": [
                1.25,
                1.25
            ],
            "ProtocolName": "gre_field_mapping",
            "RepetitionTime": 475.0,
            "RescaleIntercept": -4096.0,
            "RescaleSlope": 2.0,
            "RescaleType": "US",
            "Rows": 168,
            "SAR": 0.0,
            "SamplesPerPixel": 1,
            "ScanOptions": "PFP",
            "ScanningSequence": "GR",
            "SequenceName": "fm2d2r",
            "SequenceVariant": "SP",
            "SeriesDescription": "gre_field_mapping",
            "SeriesNumber": 36,
            "SeriesTime": "124813.812000",
            "SliceThickness": 2.5,
            "SoftwareVersions": "syngo MR B17",
            "SpacingBetweenSlices": 2.5,
            "SpecificCharacterSet": "ISO_IR 100",
            "StudyID": "1",
            "StudyTime": "112012.671000",
            "TransmitCoilName": "CFMM_8Tx32Rx",
            "VariableFlipAngleFlag": "N",
            "WindowCenterWidthExplanation": "Algo1",
            "dBdt": 0.0
        },
        "slices": {
            "AcquisitionTime": [
                "124708.080000",
                "124707.840000",
                "124708.087500",
                "124707.847500",
                "124708.095000",
                "124707.855000",
                "124708.102500",
                "124707.862500",
                "124708.110000",
                "124707.870000",
                "124708.117500",
                "124707.877500",
                "124708.125000",
                "124707.885000",
                "124708.130000",
                "124707.892500",
                "124708.137500",
                "124707.900000",
                "124708.145000",
                "124707.907500",
                "124708.152500",
                "124707.915000",
                "124708.160000",
                "124707.922500",
                "124708.167500",
                "124707.930000",
                "124708.175000",
                "124707.937500",
                "124708.182500",
                "124707.945000",
                "124708.190000",
                "124707.952500",
                "124708.197500",
                "124707.960000",
                "124708.205000",
                "124707.967500",
                "124708.212500",
                "124707.975000",
                "124708.220000",
                "124707.982500",
                "124708.227500",
                "124707.990000",
                "124708.235000",
                "124707.997500",
                "124708.242500",
                "124708.005000",
                "124708.250000",
                "124708.012500",
                "124708.257500",
                "124708.020000",
                "124708.265000",
                "124708.027500",
                "124708.272500",
                "124708.035000",
                "124708.280000",
                "124708.042500",
                "124708.287500",
                "124708.050000",
                "124708.295000",
                "124708.057500",
                "124708.302500",
                "124708.065000",
                "124708.310000",
                "124708.072500"
            ],
            "ContentTime": [
                "124813.906000",
                "124813.812000",
                "124813.921000",
                "124813.812000",
                "124813.921000",
                "124813.812000",
                "124813.921000",
                "124813.812000",
                "124813.921000",
                "124813.812000",
                "124813.921000",
                "124813.812000",
                "124813.921000",
                "124813.812000",
                "124813.921000",
                "124813.828000",
                "124813.921000",
                "124813.828000",
                "124813.921000",
                "124813.828000",
                "124813.937000",
                "124813.828000",
                "124813.937000",
                "124813.828000",
                "124813.937000",
                "124813.828000",
                "124813.937000",
                "124813.828000",
                "124813.937000",
                "124813.828000",
                "124813.937000",
                "124813.828000",
                "124813.937000",
                "124813.843000",
                "124813.937000",
                "124813.843000",
                "124813.937000",
                "124813.843000",
                "124813.953000",
                "124813.843000",
                "124813.953000",
                "124813.843000",
                "124813.953000",
                "124813.843000",
                "124813.968000",
                "124813.843000",
                "124813.968000",
                "124813.843000",
                "124813.968000",
                "124813.859000",
                "124813.968000",
                "124813.859000",
                "124813.984000",
                "124813.859000",
                "124813.984000",
                "124813.859000",
                "124813.984000",
                "124813.859000",
                "124813.984000",
                "124813.859000",
                "124814.000000",
                "124813.906000",
                "124814.000000",
                "124813.906000"
            ],
            "CsaImage.ICE_Dims": [
                "X_2_1_1_1_1_1_33_1_1_1_1_95",
                "X_2_1_1_1_1_1_1_1_1_2_1_95",
                "X_2_1_1_1_1_1_34_1_1_3_1_95",
                "X_2_1_1_1_1_1_2_1_1_4_1_95",
                "X_2_1_1_1_1_1_35_1_1_5_1_95",
                "X_2_1_1_1_1_1_3_1_1_6_1_95",
                "X_2_1_1_1_1_1_36_1_1_7_1_95",
                "X_2_1_1_1_1_1_4_1_1_8_1_95",
                "X_2_1_1_1_1_1_37_1_1_9_1_95",
                "X_2_1_1_1_1_1_5_1_1_10_1_95",
                "X_2_1_1_1_1_1_38_1_1_11_1_95",
                "X_2_1_1_1_1_1_6_1_1_12_1_95",
                "X_2_1_1_1_1_1_39_1_1_13_1_95",
                "X_2_1_1_1_1_1_7_1_1_14_1_95",
                "X_2_1_1_1_1_1_40_1_1_15_1_95",
                "X_2_1_1_1_1_1_8_1_1_16_1_95",
                "X_2_1_1_1_1_1_41_1_1_17_1_95",
                "X_2_1_1_1_1_1_9_1_1_18_1_95",
                "X_2_1_1_1_1_1_42_1_1_19_1_95",
                "X_2_1_1_1_1_1_10_1_1_20_1_95",
                "X_2_1_1_1_1_1_43_1_1_21_1_95",
                "X_2_1_1_1_1_1_11_1_1_22_1_95",
                "X_2_1_1_1_1_1_44_1_1_23_1_95",
                "X_2_1_1_1_1_1_12_1_1_24_1_95",
                "X_2_1_1_1_1_1_45_1_1_25_1_95",
                "X_2_1_1_1_1_1_13_1_1_26_1_95",
                "X_2_1_1_1_1_1_46_1_1_27_1_95",
                "X_2_1_1_1_1_1_14_1_1_28_1_95",
                "X_2_1_1_1_1_1_47_1_1_29_1_95",
                "X_2_1_1_1_1_1_15_1_1_30_1_95",
                "X_2_1_1_1_1_1_48_1_1_31_1_95",
                "X_2_1_1_1_1_1_16_1_1_32_1_95",
                "X_2_1_1_1_1_1_49_1_1_33_1_95",
                "X_2_1_1_1_1_1_17_1_1_34_1_95",
                "X_2_1_1_1_1_1_50_1_1_35_1_95",
                "X_2_1_1_1_1_1_18_1_1_36_1_95",
                "X_2_1_1_1_1_1_51_1_1_37_1_95",
                "X_2_1_1_1_1_1_19_1_1_38_1_95",
                "X_2_1_1_1_1_1_52_1_1_39_1_95",
                "X_2_1_1_1_1_1_20_1_1_40_1_95",
                "X_2_1_1_1_1_1_53_1_1_41_1_95",
                "X_2_1_1_1_1_1_21_1_1_42_1_95",
                "X_2_1_1_1_1_1_54_1_1_43_1_95",
                "X_2_1_1_1_1_1_22_1_1_44_1_95",
                "X_2_1_1_1_1_1_55_1_1_45_1_95",
                "X_2_1_1_1_1_1_23_1_1_46_1_95",
                "X_2_1_1_1_1_1_56_1_1_47_1_95",
                "X_2_1_1_1_1_1_24_1_1_48_1_95",
                "X_2_1_1_1_1_1_57_1_1_49_1_95",
                "X_2_1_1_1_1_1_25_1_1_50_1_95",
                "X_2_1_1_1_1_1_58_1_1_51_1_95",
                "X_2_1_1_1_1_1_26_1_1_52_1_95",
                "X_2_1_1_1_1_1_59_1_1_53_1_95",
                "X_2_1_1_1_1_1_27_1_1_54_1_95",
                "X_2_1_1_1_1_1_60_1_1_55_1_95",
                "X_2_1_1_1_1_1_28_1_1_56_1_95",
                "X_2_1_1_1_1_1_61_1_1_57_1_95",
                "X_2_1_1_1_1_1_29_1_1_58_1_95",
                "X_2_1_1_1_1_1_62_1_1_59_1_95",
                "X_2_1_1_1_1_1_30_1_1_60_1_95",
                "X_2_1_1_1_1_1_63_1_1_61_1_95",
                "X_2_1_1_1_1_1_31_1_1_62_1_95",
                "X_2_1_1_1_1_1_64_1_1_63_1_95",
                "X_2_1_1_1_1_1_32_1_1_64_1_95"
            ],
            "CsaImage.ProtocolSliceNumber": [
                0,
                1,
                2,
                3,
                4,
                5,
                6,
                7,
                8,
                9,
                10,
                11,
                12,
                13,
                14,
                15,
                16,
                17,
                18,
                19,
                20,
                21,
                22,
                23,
                24,
                25,
                26,
                27,
                28,
                29,
                30,
                31,
                32,
                33,
                34,
                35,
                36,
                37,
                38,
                39,
                40,
                41,
                42,
                43,
                44,
                45,
                46,
                47,
                48,
                49,
                50,
                51,
                52,
                53,
                54,
                55,
                56,
                57,
                58,
                59,
                60,
                61,
                62,
                63
            ],
            "CsaImage.SliceMeasurementDuration": [
                59135.0,
                59137.5,
                59135.0,
                59137.5,
                59135.0,
                59137.5,
                59135.0,
                59137.5,
                59135.0,
                59137.5,
                59135.0,
                59137.5,
                59135.0,
                59137.5,
                59137.5,
                59137.5,
                59137.5,
                59137.5,
                59137.5,
                59137.5,
                59137.5,
                59137.5,
                59137.5,
                59137.5,
                59137.5,
                59137.5,
                59137.5,
                59137.5,
                59137.5,
                59137.5,
                59137.5,
                59137.5,
                59137.5,
                59137.5,
                59137.5,
                59137.5,
                59137.5,
                59137.5,
                59137.5,
                59137.5,
                59137.5,
                59135.0,
                59137.5,
                59135.0,
                59137.5,
                59135.0,
                59137.5,
                59135.0,
                59137.5,
                59135.0,
                59137.5,
                59135.0,
                59137.5,
                59135.0,
                59137.5,
                59135.0,
                59137.5,
                59135.0,
                59137.5,
                59135.0,
                59137.5,
                59135.0,
                59137.5,
                59135.0
            ],
            "CsaImage.SlicePosition_PCS": [
                [
                    -105.54801043,
                    -93.98223493,
                    -94.72627258
                ],
                [
                    -105.54801043,
                    -93.98223493,
                    -92.22627258
                ],
                [
                    -105.54801043,
                    -93.98223493,
                    -89.72627258
                ],
                [
                    -105.54801043,
                    -93.98223493,
                    -87.22627258
                ],
                [
                    -105.54801043,
                    -93.98223493,
                    -84.72627258
                ],
                [
                    -105.54801043,
                    -93.98223493,
                    -82.22627258
                ],
                [
                    -105.54801043,
                    -93.98223493,
                    -79.72627258
                ],
                [
                    -105.54801043,
                    -93.98223493,
                    -77.22627258
                ],
                [
                    -105.54801043,
                    -93.98223493,
                    -74.72627258
                ],
                [
                    -105.54801043,
                    -93.98223493,
                    -72.22627258
                ],
                [
                    -105.54801043,
                    -93.98223493,
                    -69.72627258
                ],
                [
                    -105.54801043,
                    -93.98223493,
                    -67.22627258
                ],
                [
                    -105.54801043,
                    -93.98223493,
                    -64.72627258
                ],
                [
                    -105.54801043,
                    -93.98223493,
                    -62.2262764
                ],
                [
                    -105.54801043,
                    -93.98223493,
                    -59.7262764
                ],
                [
                    -105.54801043,
                    -93.98223493,
                    -57.2262764
                ],
                [
                    -105.54801043,
                    -93.98223493,
                    -54.7262764
                ],
                [
                    -105.54801043,
                    -93.98223493,
                    -52.2262764
                ],
                [
                    -105.54801043,
                    -93.98223493,
                    -49.7262764
                ],
                [
                    -105.54801043,
                    -93.98223493,
                    -47.2262764
                ],
                [
                    -105.54801043,
                    -93.98223493,
                    -44.7262764
                ],
                [
                    -105.54801043,
                    -93.98223493,
                    -42.2262764
                ],
                [
                    -105.54801043,
                    -93.98223493,
                    -39.7262764
                ],
                [
                    -105.54801043,
                    -93.98223493,
                    -37.2262764
                ],
                [
                    -105.54801043,
                    -93.98223493,
                    -34.7262764
                ],
                [
                    -105.54801043,
                    -93.98223493,
                    -32.2262764
                ],
                [
                    -105.54801043,
                    -93.98223493,
                    -29.7262764
                ],
                [
                    -105.54801043,
                    -93.98223493,
                    -27.2262764
                ],
                [
                    -105.54801043,
                    -93.98223493,
                    -24.7262764
                ],
                [
                    -105.54801043,
                    -93.98223493,
                    -22.2262764
                ],
                [
                    -105.54801043,
                    -93.98223493,
                    -19.7262764
                ],
                [
                    -105.54801043,
                    -93.98223493,
                    -17.2262764
                ],
                [
                    -105.54801043,
                    -93.98223493,
                    -14.7262764
                ],
                [
                    -105.54801043,
                    -93.98223493,
                    -12.2262764
                ],
                [
                    -105.54801043,
                    -93.98223493,
                    -9.7262764
                ],
                [
                    -105.54801043,
                    -93.98223493,
                    -7.2262764
                ],
                [
                    -105.54801043,
                    -93.98223493,
                    -4.7262764
                ],
                [
                    -105.54801043,
                    -93.98223493,
                    -2.22627616
                ],
                [
                    -105.54801043,
                    -93.98223493,
                    0.27372378
                ],
                [
                    -105.54801043,
                    -93.98223493,
                    2.77372384
                ],
                [
                    -105.54801043,
                    -93.98223493,
                    5.2737236
                ],
                [
                    -105.54801043,
                    -93.98223493,
                    7.7737236
                ],
                [
                    -105.54801043,
                    -93.98223493,
                    10.2737236
                ],
                [
                    -105.54801043,
                    -93.98223493,
                    12.7737236
                ],
                [
                    -105.54801043,
                    -93.98223493,
                    15.2737236
                ],
                [
                    -105.54801043,
                    -93.98223493,
                    17.7737236
                ],
                [
                    -105.54801043,
                    -93.98223493,
                    20.2737236
                ],
                [
                    -105.54801043,
                    -93.98223493,
                    22.7737236
                ],
                [
                    -105.54801043,
                    -93.98223493,
                    25.2737236
                ],
                [
                    -105.54801043,
                    -93.98223493,
                    27.7737236
                ],
                [
                    -105.54801043,
                    -93.98223493,
                    30.2737236
                ],
                [
                    -105.54801043,
                    -93.98223493,
                    32.7737236
                ],
                [
                    -105.54801043,
                    -93.98223493,
                    35.2737236
                ],
                [
                    -105.54801043,
                    -93.98223493,
                    37.7737236
                ],
                [
                    -105.54801043,
                    -93.98223493,
                    40.2737236
                ],
                [
                    -105.54801043,
                    -93.98223493,
                    42.7737236
                ],
                [
                    -105.54801043,
                    -93.98223493,
                    45.2737236
                ],
                [
                    -105.54801043,
                    -93.98223493,
                    47.7737236
                ],
                [
                    -105.54801043,
                    -93.98223493,
                    50.2737236
                ],
                [
                    -105.54801043,
                    -93.98223493,
                    52.7737236
                ],
                [
                    -105.54801043,
                    -93.98223493,
                    55.2737236
                ],
                [
                    -105.54801043,
                    -93.98223493,
                    57.7737236
                ],
                [
                    -105.54801043,
                    -93.98223493,
                    60.2737236
                ],
                [
                    -105.54801043,
                    -93.98223493,
                    62.7737236
                ]
            ],
            "CsaImage.TimeAfterStart": [
                0.7175,
                0.4775,
                0.725,
                0.485,
                0.7325,
                0.4925,
                0.74,
                0.5,
                0.7475,
                0.5075,
                0.755,
                0.515,
                0.7625,
                0.5225,
                0.77,
                0.53,
                0.7775,
                0.5375,
                0.785,
                0.545,
                0.7925,
                0.5525,
                0.8,
                0.56,
                0.805,
                0.5675,
                0.8125,
                0.575,
                0.82,
                0.5825,
                0.8275,
                0.59,
                0.835,
                0.5975,
                0.8425,
                0.605,
                0.85,
                0.6125,
                0.8575,
                0.62,
                0.865,
                0.6275,
                0.8725,
                0.635,
                0.88,
                0.6425,
                0.8875,
                0.65,
                0.895,
                0.6575,
                0.9025,
                0.665,
                0.91,
                0.6725,
                0.9175,
                0.68,
                0.925,
                0.6875,
                0.9325,
                0.695,
                0.94,
                0.7025,
                0.9475,
                0.71
            ],
            "ImagePositionPatient": [
                [
                    -105.54801043041,
                    -93.982234933298,
                    -94.726272583008
                ],
                [
                    -105.54801043041,
                    -93.982234933298,
                    -92.226272583008
                ],
                [
                    -105.54801043041,
                    -93.982234933298,
                    -89.726272583008
                ],
                [
                    -105.54801043041,
                    -93.982234933298,
                    -87.226272583008
                ],
                [
                    -105.54801043041,
                    -93.982234933298,
                    -84.726272583008
                ],
                [
                    -105.54801043041,
                    -93.982234933298,
                    -82.226272583008
                ],
                [
                    -105.54801043041,
                    -93.982234933298,
                    -79.726272583008
                ],
                [
                    -105.54801043041,
                    -93.982234933298,
                    -77.226272583008
                ],
                [
                    -105.54801043041,
                    -93.982234933298,
                    -74.726272583008
                ],
                [
                    -105.54801043041,
                    -93.982234933298,
                    -72.226272583008
                ],
                [
                    -105.54801043041,
                    -93.982234933298,
                    -69.726272583008
                ],
                [
                    -105.54801043041,
                    -93.982234933298,
                    -67.226272583008
                ],
                [
                    -105.54801043041,
                    -93.982234933298,
                    -64.726272583008
                ],
                [
                    -105.54801043041,
                    -93.982234933298,
                    -62.226276397705
                ],
                [
                    -105.54801043041,
                    -93.982234933298,
                    -59.726276397705
                ],
                [
                    -105.54801043041,
                    -93.982234933298,
                    -57.226276397705
                ],
