{
    "AcquisitionMatrixPE": 84,
    "AcquisitionNumber": 1,
    "AcquisitionTime": "12:08:13.380000",
    "BaseResolution": 168,
    "CoilString": "C:E1_2",
    "ConversionSoftware": "dcm2niix",
    "ConversionSoftwareVersion": "v1.0.20191031",
    "DeviceSerialNumber": "18932",
    "DwellTime": 4.9e-06,
    "EchoNumber": 2,
    "EchoTime": 0.0051,
    "EchoTime1": 0.00408,
    "EchoTime2": 0.0051,
    "FlipAngle": 35,
    "ImageOrientationPatientDICOM": [
        1,
        -2.05103e-10,
        0,
        2.05103e-10,
        1,
        0
    ],
    "ImageType": [
        "ORIGINAL",
        "PRIMARY",
        "P",
        "ND",
        "PHASE"
    ],
    "ImagingFrequency": 297.229,
    "InPlanePhaseEncodingDirectionDICOM": "ROW",
    "InstitutionAddress": "Richmond_Street_North_1151_London_409EF2_Ontario_CA_N6A_5B7",
    "InstitutionName": "Robarts_Reserch_Institute",
    "InstitutionalDepartmentName": "Department",
    "MRAcquisitionType": "2D",
    "MagneticFieldStrength": 6.98,
    "Manufacturer": "Siemens",
    "ManufacturersModelName": "Investigational_Device_7T",
    "Modality": "MR",
    "PartialFourier": 0.75,
    "PatientPosition": "HFS",
    "PercentPhaseFOV": 100,
    "PhaseEncodingDirection": "i",
    "PhaseEncodingSteps": 63,
    "PhaseResolution": 0.5,
    "PixelBandwidth": 607,
    "ProcedureStepDescription": "Diedrichsen_SeqRep4",
    "ProtocolName": "gre_field_mapping",
    "PulseSequenceDetails": "%SiemensSeq%_gre_field_mapping",
    "ReceiveCoilName": "CFMM_8Tx32Rx",
    "ReconMatrixPE": 168,
    "RepetitionTime": 0.475,
    "ScanOptions": "PFP",
    "ScanningSequence": "GR",
    "SequenceName": "fm2d2r",
    "SequenceVariant": "SP",
    "SeriesDescription": "gre_field_mapping",
    "SeriesNumber": 36,
    "ShimSetting": [
        -42,
        2071,
        3,
        1492,
        24,
        2,
        67,
        -200
    ],
    "SliceThickness": 2.5,
    "SliceTiming": [
        0.24219,
        0,
        0.25,
        0.00781,
        0.25781,
        0.01562,
        0.26562,
        0.02344,
        0.26562,
        0.03125,
        0.27344,
        0.03906,
        0.28125,
        0.04688,
        0.28906,
        0.05469,
        0.29688,
        0.0625,
        0.30469,
        0.07031,
        0.3125,
        0.07812,
        0.32031,
        0.08594,
        0.32812,
        0.09375,
        0.33594,
        0.10156,
        0.34375,
        0.10938,
        0.35156,
        0.11719,
        0.35938,
        0.125,
        0.36719,
        0.13281,
        0.375,
        0.14062,
        0.38281,
        0.14062,
        0.39062,
        0.14844,
        0.39844,
        0.15625,
        0.40625,
        0.16406,
        0.41406,
        0.17188,
        0.42188,
        0.17969,
        0.42969,
        0.1875,
        0.4375,
        0.19531,
        0.44531,
        0.20312,
        0.45312,
        0.21094,
        0.45312,
        0.21875,
        0.46094,
        0.22656,
        0.46875,
        0.23438
    ],
    "SoftwareVersions": "syngo_MR_B17",
    "SpacingBetweenSlices": 2.5,
    "StationName": "MASTER",
    "TxRefAmp": 116.292,
    "dcmmeta_affine": [
        [
            -1.25,
            2.5637925116228644e-10,
            0.0,
            105.54801177978516
        ],
        [
            2.5637925116228644e-10,
            1.25,
            0.0,
            -112.58858489990234
        ],
        [
            0.0,
            0.0,
            2.5,
            -84.5567855834961
        ],
        [
            0.0,
            0.0,
            0.0,
            1.0
        ]
    ],
    "dcmmeta_reorient_transform": [
        [
            0.0,
            -1.0,
            0.0,
            167.0
        ],
        [
            1.0,
            0.0,
            0.0,
            0.0
        ],
        [
            0.0,
            0.0,
            -1.0,
            63.0
        ],
        [
            0.0,
            0.0,
            0.0,
            1.0
        ]
    ],
    "dcmmeta_shape": [
        168,
        168,
        64
    ],
    "dcmmeta_slice_dim": 2,
    "dcmmeta_version": 0.6,
    "global": {
        "const": {
            "AcquisitionMatrix": [
                0,
                168,
                84,
                0
            ],
            "AcquisitionNumber": 1,
            "AngioFlag": "N",
            "BitsAllocated": 16,
            "BitsStored": 12,
            "Columns": 168,
            "EchoNumbers": 2,
            "EchoTime": 5.1,
            "EchoTrainLength": 1,
            "FlipAngle": 35.0,
            "HighBit": 11,
            "ImageOrientationPatient": [
                1.0,
                -2.051034e-10,
                0.0,
                2.051034e-10,
                1.0,
                0.0
            ],
            "ImageType": [
                "ORIGINAL",
                "PRIMARY",
                "P",
                "ND"
            ],
            "ImagedNucleus": "1H",
            "ImagingFrequency": 297.228959,
            "InPlanePhaseEncodingDirection": "ROW",
            "MRAcquisitionType": "2D",
            "MagneticFieldStrength": 6.98,
            "Manufacturer": "SIEMENS",
            "ManufacturerModelName": "Investigational_Device_7T",
            "Modality": "MR",
            "NumberOfAverages": 1.0,
            "NumberOfPhaseEncodingSteps": 63,
            "PercentPhaseFieldOfView": 100.0,
            "PercentSampling": 50.0,
            "PerformedProcedureStepStartTime": "103843.453000",
            "PhotometricInterpretation": "MONOCHROME2",
            "PixelBandwidth": 607.0,
            "PixelRepresentation": 0,
            "PixelSpacing": [
                1.25,
                1.25
            ],
            "ProtocolName": "gre_field_mapping",
            "RepetitionTime": 475.0,
            "RescaleIntercept": -4096.0,
            "RescaleSlope": 2.0,
            "RescaleType": "US",
            "Rows": 168,
            "SAR": 0.0,
            "SamplesPerPixel": 1,
            "ScanOptions": "PFP",
            "ScanningSequence": "GR",
            "SequenceName": "fm2d2r",
            "SequenceVariant": "SP",
            "SeriesDescription": "gre_field_mapping",
            "SeriesNumber": 36,
            "SeriesTime": "120919.390000",
            "SliceThickness": 2.5,
            "SmallestImagePixelValue": 0,
            "SoftwareVersions": "syngo MR B17",
            "SpacingBetweenSlices": 2.5,
            "SpecificCharacterSet": "ISO_IR 100",
            "StudyID": "1",
            "StudyTime": "103843.390000",
            "TransmitCoilName": "CFMM_8Tx32Rx",
            "VariableFlipAngleFlag": "N",
            "WindowCenterWidthExplanation": "Algo1",
            "dBdt": 0.0
        },
        "slices": {
            "AcquisitionTime": [
                "120813.380000",
                "120813.142500",
                "120813.387500",
                "120813.150000",
                "120813.395000",
                "120813.157500",
                "120813.402500",
                "120813.165000",
                "120813.410000",
                "120813.172500",
                "120813.417500",
                "120813.180000",
                "120813.425000",
                "120813.187500",
                "120813.432500",
                "120813.195000",
                "120813.440000",
                "120813.202500",
                "120813.447500",
                "120813.210000",
                "120813.455000",
                "120813.217500",
                "120813.462500",
                "120813.225000",
                "120813.470000",
                "120813.232500",
                "120813.477500",
                "120813.240000",
                "120813.485000",
                "120813.247500",
                "120813.492500",
                "120813.255000",
                "120813.500000",
                "120813.262500",
                "120813.507500",
                "120813.270000",
                "120813.515000",
                "120813.277500",
                "120813.522500",
                "120813.285000",
                "120813.530000",
                "120813.292500",
                "120813.537500",
                "120813.300000",
                "120813.545000",
                "120813.307500",
                "120813.552500",
                "120813.312500",
                "120813.560000",
                "120813.320000",
                "120813.567500",
                "120813.327500",
                "120813.575000",
                "120813.335000",
                "120813.582500",
                "120813.342500",
                "120813.590000",
                "120813.350000",
                "120813.597500",
                "120813.357500",
                "120813.605000",
                "120813.365000",
                "120813.612500",
                "120813.372500"
            ],
            "ContentTime": [
                "120919.453000",
                "120919.390000",
                "120919.453000",
                "120919.390000",
                "120919.453000",
                "120919.390000",
                "120919.468000",
                "120919.390000",
                "120919.468000",
                "120919.406000",
                "120919.468000",
                "120919.406000",
                "120919.468000",
                "120919.406000",
                "120919.468000",
                "120919.406000",
                "120919.468000",
                "120919.406000",
                "120919.468000",
                "120919.406000",
                "120919.468000",
                "120919.406000",
                "120919.484000",
                "120919.406000",
                "120919.484000",
                "120919.406000",
                "120919.484000",
                "120919.421000",
                "120919.484000",
                "120919.421000",
                "120919.484000",
                "120919.421000",
                "120919.484000",
                "120919.421000",
                "120919.484000",
                "120919.421000",
                "120919.500000",
                "120919.421000",
                "120919.500000",
                "120919.421000",
                "120919.500000",
                "120919.421000",
                "120919.500000",
                "120919.421000",
                "120919.500000",
                "120919.421000",
                "120919.500000",
                "120919.437000",
                "120919.500000",
                "120919.437000",
                "120919.515000",
                "120919.437000",
                "120919.515000",
                "120919.437000",
                "120919.515000",
                "120919.437000",
                "120919.515000",
                "120919.437000",
                "120919.515000",
                "120919.437000",
                "120919.515000",
                "120919.453000",
                "120919.515000",
                "120919.453000"
            ],
            "CsaImage.ICE_Dims": [
                "X_2_1_1_1_1_1_33_1_1_1_1_97",
                "X_2_1_1_1_1_1_1_1_1_2_1_97",
                "X_2_1_1_1_1_1_34_1_1_3_1_97",
                "X_2_1_1_1_1_1_2_1_1_4_1_97",
                "X_2_1_1_1_1_1_35_1_1_5_1_97",
                "X_2_1_1_1_1_1_3_1_1_6_1_97",
                "X_2_1_1_1_1_1_36_1_1_7_1_97",
                "X_2_1_1_1_1_1_4_1_1_8_1_97",
                "X_2_1_1_1_1_1_37_1_1_9_1_97",
                "X_2_1_1_1_1_1_5_1_1_10_1_97",
                "X_2_1_1_1_1_1_38_1_1_11_1_97",
                "X_2_1_1_1_1_1_6_1_1_12_1_97",
                "X_2_1_1_1_1_1_39_1_1_13_1_97",
                "X_2_1_1_1_1_1_7_1_1_14_1_97",
                "X_2_1_1_1_1_1_40_1_1_15_1_97",
                "X_2_1_1_1_1_1_8_1_1_16_1_97",
                "X_2_1_1_1_1_1_41_1_1_17_1_97",
                "X_2_1_1_1_1_1_9_1_1_18_1_97",
                "X_2_1_1_1_1_1_42_1_1_19_1_97",
                "X_2_1_1_1_1_1_10_1_1_20_1_97",
                "X_2_1_1_1_1_1_43_1_1_21_1_97",
                "X_2_1_1_1_1_1_11_1_1_22_1_97",
                "X_2_1_1_1_1_1_44_1_1_23_1_97",
                "X_2_1_1_1_1_1_12_1_1_24_1_97",
                "X_2_1_1_1_1_1_45_1_1_25_1_97",
                "X_2_1_1_1_1_1_13_1_1_26_1_97",
                "X_2_1_1_1_1_1_46_1_1_27_1_97",
                "X_2_1_1_1_1_1_14_1_1_28_1_97",
                "X_2_1_1_1_1_1_47_1_1_29_1_97",
                "X_2_1_1_1_1_1_15_1_1_30_1_97",
                "X_2_1_1_1_1_1_48_1_1_31_1_97",
                "X_2_1_1_1_1_1_16_1_1_32_1_97",
                "X_2_1_1_1_1_1_49_1_1_33_1_97",
                "X_2_1_1_1_1_1_17_1_1_34_1_97",
                "X_2_1_1_1_1_1_50_1_1_35_1_97",
                "X_2_1_1_1_1_1_18_1_1_36_1_97",
                "X_2_1_1_1_1_1_51_1_1_37_1_97",
                "X_2_1_1_1_1_1_19_1_1_38_1_97",
                "X_2_1_1_1_1_1_52_1_1_39_1_97",
                "X_2_1_1_1_1_1_20_1_1_40_1_97",
                "X_2_1_1_1_1_1_53_1_1_41_1_97",
                "X_2_1_1_1_1_1_21_1_1_42_1_97",
                "X_2_1_1_1_1_1_54_1_1_43_1_97",
                "X_2_1_1_1_1_1_22_1_1_44_1_97",
                "X_2_1_1_1_1_1_55_1_1_45_1_97",
                "X_2_1_1_1_1_1_23_1_1_46_1_97",
                "X_2_1_1_1_1_1_56_1_1_47_1_97",
                "X_2_1_1_1_1_1_24_1_1_48_1_97",
                "X_2_1_1_1_1_1_57_1_1_49_1_97",
                "X_2_1_1_1_1_1_25_1_1_50_1_97",
                "X_2_1_1_1_1_1_58_1_1_51_1_97",
                "X_2_1_1_1_1_1_26_1_1_52_1_97",
                "X_2_1_1_1_1_1_59_1_1_53_1_97",
                "X_2_1_1_1_1_1_27_1_1_54_1_97",
                "X_2_1_1_1_1_1_60_1_1_55_1_97",
                "X_2_1_1_1_1_1_28_1_1_56_1_97",
                "X_2_1_1_1_1_1_61_1_1_57_1_97",
                "X_2_1_1_1_1_1_29_1_1_58_1_97",
                "X_2_1_1_1_1_1_62_1_1_59_1_97",
                "X_2_1_1_1_1_1_30_1_1_60_1_97",
                "X_2_1_1_1_1_1_63_1_1_61_1_97",
                "X_2_1_1_1_1_1_31_1_1_62_1_97",
                "X_2_1_1_1_1_1_64_1_1_63_1_97",
                "X_2_1_1_1_1_1_32_1_1_64_1_97"
            ],
            "CsaImage.ProtocolSliceNumber": [
                0,
                1,
                2,
                3,
                4,
                5,
                6,
                7,
                8,
                9,
                10,
                11,
                12,
                13,
                14,
                15,
                16,
                17,
                18,
                19,
                20,
                21,
                22,
                23,
                24,
                25,
                26,
                27,
                28,
                29,
                30,
                31,
                32,
                33,
                34,
                35,
                36,
                37,
                38,
                39,
                40,
                41,
                42,
                43,
                44,
                45,
                46,
                47,
                48,
                49,
                50,
                51,
                52,
                53,
                54,
                55,
                56,
                57,
                58,
                59,
                60,
                61,
                62,
                63
            ],
            "CsaImage.SliceMeasurementDuration": [
                59137.5,
                59137.5,
                59137.5,
                59137.5,
                59137.5,
                59137.5,
                59137.5,
                59137.5,
                59137.5,
                59135.0,
                59137.5,
                59135.0,
                59137.5,
                59135.0,
                59137.5,
                59135.0,
                59137.5,
                59135.0,
                59137.5,
                59135.0,
                59137.5,
                59135.0,
                59137.5,
                59135.0,
                59137.5,
                59135.0,
                59137.5,
                59135.0,
                59137.5,
                59135.0,
                59137.5,
                59135.0,
                59137.5,
                59135.0,
                59137.5,
                59135.0,
                59137.5,
                59135.0,
                59137.5,
                59135.0,
                59137.5,
                59135.0,
                59137.5,
                59135.0,
                59135.0,
                59135.0,
                59135.0,
                59137.5,
                59135.0,
                59137.5,
                59135.0,
                59137.5,
                59135.0,
                59137.5,
                59135.0,
                59137.5,
                59135.0,
                59137.5,
                59135.0,
                59137.5,
                59135.0,
                59137.5,
                59135.0,
                59137.5
            ],
            "CsaImage.SlicePosition_PCS": [
                [
                    -105.54801043,
                    -96.16141222,
                    -84.55678558
                ],
                [
                    -105.54801043,
                    -96.16141222,
                    -82.05678558
                ],
                [
                    -105.54801043,
                    -96.16141222,
                    -79.55678558
                ],
                [
                    -105.54801043,
                    -96.16141222,
                    -77.05678558
                ],
                [
                    -105.54801043,
                    -96.16141222,
                    -74.55678558
                ],
                [
                    -105.54801043,
                    -96.16141222,
                    -72.05678558
                ],
                [
                    -105.54801043,
                    -96.16141222,
                    -69.55678558
                ],
                [
                    -105.54801043,
                    -96.16141222,
                    -67.05678558
                ],
                [
                    -105.54801043,
                    -96.16141222,
                    -64.55678558
                ],
                [
                    -105.54801043,
                    -96.16141222,
                    -62.05678558
                ],
                [
                    -105.54801043,
                    -96.16141222,
                    -59.55678558
                ],
                [
                    -105.54801043,
                    -96.16141222,
                    -57.05678558
                ],
                [
                    -105.54801043,
                    -96.16141222,
                    -54.55678558
                ],
                [
                    -105.54801043,
                    -96.16141222,
                    -52.05678558
                ],
                [
                    -105.54801043,
                    -96.16141222,
                    -49.55678558
                ],
                [
                    -105.54801043,
                    -96.16141222,
                    -47.05678558
                ],
                [
                    -105.54801043,
                    -96.16141222,
                    -44.55678558
                ],
                [
                    -105.54801043,
                    -96.16141222,
                    -42.05678558
                ],
                [
                    -105.54801043,
                    -96.16141222,
                    -39.55678558
                ],
                [
                    -105.54801043,
                    -96.16141222,
                    -37.05678558
                ],
                [
                    -105.54801043,
                    -96.16141222,
                    -34.55678558
                ],
                [
                    -105.54801043,
                    -96.16141222,
                    -32.05678558
                ],
                [
                    -105.54801043,
                    -96.16141222,
                    -29.55678558
                ],
                [
                    -105.54801043,
                    -96.16141222,
                    -27.05678558
                ],
                [
                    -105.54801043,
                    -96.16141222,
                    -24.55678558
                ],
                [
                    -105.54801043,
                    -96.16141222,
                    -22.05678558
                ],
                [
                    -105.54801043,
                    -96.16141222,
                    -19.55678558
                ],
                [
                    -105.54801043,
                    -96.16141222,
                    -17.05678558
                ],
                [
                    -105.54801043,
                    -96.16141222,
                    -14.55678463
                ],
                [
                    -105.54801043,
                    -96.16141222,
                    -12.05678463
                ],
                [
                    -105.54801043,
                    -96.16141222,
                    -9.55678463
                ],
                [
                    -105.54801043,
                    -96.16141222,
                    -7.05678463
                ],
                [
                    -105.54801043,
                    -96.16141222,
                    -4.55678463
                ],
                [
                    -105.54801043,
                    -96.16141222,
                    -2.05678463
                ],
                [
                    -105.54801043,
                    -96.16141222,
                    0.44321531
                ],
                [
                    -105.54801043,
                    -96.16141222,
                    2.94321537
                ],
                [
                    -105.54801043,
                    -96.16141222,
                    5.44321537
                ],
                [
                    -105.54801043,
                    -96.16141222,
                    7.94321537
                ],
                [
                    -105.54801043,
                    -96.16141222,
                    10.44321537
                ],
                [
                    -105.54801043,
                    -96.16141222,
                    12.94321537
                ],
                [
                    -105.54801043,
                    -96.16141222,
                    15.44321537
                ],
                [
                    -105.54801043,
                    -96.16141222,
                    17.94321442
                ],
                [
                    -105.54801043,
                    -96.16141222,
                    20.44321442
                ],
                [
                    -105.54801043,
                    -96.16141222,
                    22.94321442
                ],
                [
                    -105.54801043,
                    -96.16141222,
                    25.44321442
                ],
                [
                    -105.54801043,
                    -96.16141222,
                    27.94321442
                ],
                [
                    -105.54801043,
                    -96.16141222,
                    30.44321442
                ],
                [
                    -105.54801043,
                    -96.16141222,
                    32.94321442
                ],
                [
                    -105.54801043,
                    -96.16141222,
                    35.44321442
                ],
                [
                    -105.54801043,
                    -96.16141222,
                    37.94321442
                ],
                [
                    -105.54801043,
                    -96.16141222,
                    40.44321442
                ],
                [
                    -105.54801043,
                    -96.16141222,
                    42.94321442
                ],
                [
                    -105.54801043,
                    -96.16141222,
                    45.44321442
                ],
                [
                    -105.54801043,
                    -96.16141222,
                    47.94321442
                ],
                [
                    -105.54801043,
                    -96.16141222,
                    50.44321442
                ],
                [
                    -105.54801043,
                    -96.16141222,
                    52.94321442
                ],
                [
                    -105.54801043,
                    -96.16141222,
                    55.44321442
                ],
                [
                    -105.54801043,
                    -96.16141222,
                    57.94321442
                ],
                [
                    -105.54801043,
                    -96.16141222,
                    60.44321442
                ],
                [
                    -105.54801043,
                    -96.16141222,
                    62.94321442
                ],
                [
                    -105.54801043,
                    -96.16141222,
                    65.44321442
                ],
                [
                    -105.54801043,
                    -96.16141222,
                    67.94321442
                ],
                [
                    -105.54801043,
                    -96.16141222,
                    70.44321442
                ],
                [
                    -105.54801043,
                    -96.16141222,
                    72.94321442
                ]
            ],
            "CsaImage.TimeAfterStart": [
                0.715,
                0.4775,
                0.7225,
                0.485,
                0.73,
                0.4925,
                0.7375,
                0.5,
                0.745,
                0.5075,
                0.7525,
                0.515,
                0.76,
                0.5225,
                0.7675,
                0.53,
                0.775,
                0.5375,
                0.7825,
                0.545,
                0.79,
                0.5525,
                0.7975,
                0.56,
                0.805,
                0.5675,
                0.8125,
                0.575,
                0.82,
                0.5825,
                0.8275,
                0.59,
                0.835,
                0.5975,
                0.8425,
                0.605,
                0.85,
                0.6125,
                0.8575,
                0.62,
                0.865,
                0.6275,
                0.8725,
                0.635,
                0.88,
                0.6425,
                0.8875,
                0.65,
                0.895,
                0.6575,
                0.9025,
                0.665,
                0.91,
                0.6725,
                0.9175,
                0.68,
                0.925,
                0.685,
                0.9325,
                0.6925,
                0.94,
                0.7,
                0.9475,
                0.7075
            ],
            "ImagePositionPatient": [
                [
                    -105.54801043041,
                    -96.161412217539,
                    -84.556785583496
                ],
                [
                    -105.54801043041,
                    -96.161412217539,
                    -82.056785583496
                ],
                [
                    -105.54801043041,
                    -96.161412217539,
                    -79.556785583496
                ],
                [
                    -105.54801043041,
                    -96.161412217539,
                    -77.056785583496
                ],
                [
                    -105.54801043041,
                    -96.161412217539,
                    -74.556785583496
                ],
                [
                    -105.54801043041,
                    -96.161412217539,
                    -72.056785583496
                ],
                [
                    -105.54801043041,
                    -96.161412217539,
                    -69.556785583496
                ],
                [
                    -105.54801043041,
                    -96.161412217539,
                    -67.056785583496
                ],
                [
                    -105.54801043041,
                    -96.161412217539,
                    -64.556785583496
                ],
                [
                    -105.54801043041,
                    -96.161412217539,
                    -62.056785583496
                ],
                [
                    -105.54801043041,
                    -96.161412217539,
                    -59.556785583496
                ],
                [
                    -105.54801043041,
                    -96.161412217539,
                    -57.056785583496
                ],
                [
                    -105.54801043041,
                    -96.161412217539,
                    -54.556785583496
                ],
                [
                    -105.54801043041,
                    -96.161412217539,
                    -52.056785583496
                ],
                [
                    -105.54801043041,
                    -96.161412217539,
                    -49.556785583496
                ],
                [
                    -105.54801043041,
