{
  "AcquisitionMatrixPE": 104,
  "AcquisitionNumber": 1,
  "AcquisitionTime": "12:48:33.270000",
  "BandwidthPerPixelPhaseEncode": 43.054,
  "BaseResolution": 104,
  "CoilString": "C:E1_2",
  "ConversionSoftware": "dcm2niix",
  "ConversionSoftwareVersion": "v1.0.20191031",
  "DerivedVendorReportedEchoSpacing": 0.000669999,
  "DeviceSerialNumber": "18932",
  "DwellTime": 2.8e-06,
  "EchoTime": 0.02,
  "EffectiveEchoSpacing": 0.000223333,
  "FlipAngle": 30,
  "ImageComments": "Unaliased_MB2_PE2",
  "ImageOrientationPatientDICOM": [1, 0, 0, 0, 0.988756, -0.149535],
  "ImageType": [
    "ORIGINAL",
    "PRIMARY",
    "M",
    "MB",
    "ND",
    "MOSAIC"
],
  "ImagingFrequency": 297.229,
  "InPlanePhaseEncodingDirectionDICOM": "COL",
  "InstitutionAddress": "Richmond_Street_North_1151_London_409EF2_Ontario_CA_N6A_5B7",
  "InstitutionName": "Robarts_Reserch_Institute",
  "InstitutionalDepartmentName": "Department",
  "MRAcquisitionType": "2D",
  "MagneticFieldStrength": 6.98,
  "Manufacturer": "Siemens",
  "ManufacturersModelName": "Investigational_Device_7T",
  "Modality": "MR",
  "MultibandAccelerationFactor": 2,
  "ParallelReductionFactorInPlane": 3,
  "PartialFourier": 0.875,
  "PatientPosition": "HFS",
  "PercentPhaseFOV": 100,
  "PhaseEncodingDirection": "j-",
  "PhaseEncodingSteps": 91,
  "PhaseResolution": 1,
  "PixelBandwidth": 1717,
  "ProcedureStepDescription": "Diedrichsen_SeqRep4",
  "ProtocolName": "mbep2d_bold_mb2_p3_AP_2iso",
  "PulseSequenceDetails": "%CustomerSeq%_cmrr_mbep2d_bold",
  "ReceiveCoilName": "CFMM_8Tx32Rx",
  "ReconMatrixPE": 104,
  "RefLinesPE": 36,
  "RepetitionTime": 1,
  "ScanOptions": "PFP_FS",
  "ScanningSequence": "EP",
  "SequenceName": "epfid2d1_104",
  "SequenceVariant": "SK_SS",
  "SeriesDescription": "mbep2d_bold_mb2_p3_AP_2iso",
  "SeriesNumber": 12,
  "ShimSetting": [-16, 1963, 280, 451, 67, -195, -266, -123],
  "SliceThickness": 2,
  "SliceTiming": [0, 0.2275, 0.455, 0.6825, 0.91, 0.135, 0.365, 0.5925, 0.82, 0.045, 0.2725, 0.5, 0.7275, 0.9575, 0.1825, 0.41, 0.6375, 0.865, 0.09, 0.3175, 0.5475, 0.775, 0, 0.2275, 0.455, 0.6825, 0.91, 0.135, 0.365, 0.5925, 0.82, 0.045, 0.2725, 0.5, 0.7275, 0.9575, 0.1825, 0.41, 0.6375, 0.865, 0.09, 0.3175, 0.5475, 0.775],
  "SoftwareVersions": "syngo_MR_B17",
  "SpacingBetweenSlices": 2,
  "StationName": "MASTER",
  "TaskName": "dsp",
  "TotalReadoutTime": 0.0230033,
  "TxRefAmp": 120,
  "dcmmeta_affine": [
    [-2.0, 0.0, 0.0, 107.6319580078125],
    [0.0, 1.9775127172470093, -0.29907068610191345, -106.04757690429688],
    [0.0, 0.29907068610191345, 1.9775127172470093, -46.19629669189453],
    [0.0, 0.0, 0.0, 1.0]
],
  "dcmmeta_reorient_transform": [
    [0.0, -1.0, 0.0, 103.0],
    [1.0, 0.0, 0.0, 0.0],
    [0.0, 0.0, 1.0, 0.0],
    [0.0, 0.0, 0.0, 1.0]
],
  "dcmmeta_shape": [104, 104, 44, 330],
  "dcmmeta_slice_dim": 2,
  "dcmmeta_version": 0.6,
  "global": {
    "const": {
      "AcquisitionMatrix": [104, 0, 0, 104],
      "AngioFlag": "N",
      "BitsAllocated": 16,
      "BitsStored": 12,
      "Columns": 728,
      "EchoNumbers": 1,
      "EchoTime": 20.0,
      "EchoTrainLength": 1,
      "FlipAngle": 30.0,
      "HighBit": 11,
      "ImageOrientationPatient": [1.0, 0.0, 0.0, 0.0, 0.98875638160626, -0.1495353397458],
      "ImagePositionPatient": [-731.63196134567, -714.62022165698, 77.918034173961],
      "ImageType": [
        "ORIGINAL",
        "PRIMARY",
        "M",
        "MB",
        "ND",
        "MOSAIC"
],
      "ImagedNucleus": "1H",
      "ImagingFrequency": 297.229251,
      "InPlanePhaseEncodingDirection": "COL",
      "MRAcquisitionType": "2D",
      "MagneticFieldStrength": 6.98,
      "Manufacturer": "SIEMENS",
      "ManufacturerModelName": "Investigational_Device_7T",
      "Modality": "MR",
      "NumberOfAverages": 1.0,
      "NumberOfPhaseEncodingSteps": 91,
      "PercentPhaseFieldOfView": 100.0,
      "PercentSampling": 100.0,
      "PerformedProcedureStepStartTime": "123916.500000",
      "PhotometricInterpretation": "MONOCHROME2",
      "PixelBandwidth": 1717.0,
      "PixelRepresentation": 0,
      "PixelSpacing": [2.0, 2.0],
      "ProtocolName": "mbep2d_bold_mb2_p3_AP 2iso",
      "RepetitionTime": 1000.0,
      "Rows": 728,
      "SAR": 0.0,
      "SamplesPerPixel": 1,
      "ScanOptions": [
        "PFP",
        "FS"
],
      "ScanningSequence": "EP",
      "SequenceName": "epfid2d1_104",
      "SequenceVariant": [
        "SK",
        "SS"
],
      "SeriesDescription": "mbep2d_bold_mb2_p3_AP 2iso",
      "SeriesNumber": 12,
      "SeriesTime": "124903.500000",
      "SliceLocation": -29.819024103006,
      "SliceThickness": 2.0,
      "SmallestImagePixelValue": 0,
      "SoftwareVersions": "syngo MR B17",
      "SpacingBetweenSlices": 1.9999999990406,
      "SpecificCharacterSet": "ISO_IR 100",
      "StudyID": "1",
      "StudyTime": "123916.437000",
      "TransmitCoilName": "CFMM_8Tx32Rx",
      "VariableFlipAngleFlag": "N",
      "WindowCenterWidthExplanation": "Algo1",
      "dBdt": 0.0},
    "slices": {}
  },
  "time": {
    "samples": {
      "AcquisitionNumber": [1, 2, 3, 4, 5, 6, 7, 8, 9, 10, 11, 12, 13, 14, 15, 16, 17, 18, 19, 20, 21, 22, 23, 24, 25, 26, 27, 28, 29, 30, 31, 32, 33, 34, 35, 36, 37, 38, 39, 40, 41, 42, 43, 44, 45, 46, 47, 48, 49, 50, 51, 52, 53, 54, 55, 56, 57, 58, 59, 60, 61, 62, 63, 64, 65, 66, 67, 68, 69, 70, 71, 72, 73, 74, 75, 76, 77, 78, 79, 80, 81, 82, 83, 84, 85, 86, 87, 88, 89, 90, 91, 92, 93, 94, 95, 96, 97, 98, 99, 100, 101, 102, 103, 104, 105, 106, 107, 108, 109, 110, 111, 112, 113, 114, 115, 116, 117, 118, 119, 120, 121, 122, 123, 124, 125, 126, 127, 128, 129, 130, 131, 132, 133, 134, 135, 136, 137, 138, 139, 140, 141, 142, 143, 144, 145, 146, 147, 148, 149, 150, 151, 152, 153, 154, 155, 156, 157, 158, 159, 160, 161, 162, 163, 164, 165, 166, 167, 168, 169, 170, 171, 172, 173, 174, 175, 176, 177, 178, 179, 180, 181, 182, 183, 184, 185, 186, 187, 188, 189, 190, 191, 192, 193, 194, 195, 196, 197, 198, 199, 200, 201, 202, 203, 204, 205, 206, 207, 208, 209, 210, 211, 212, 213, 214, 215, 216, 217, 218, 219, 220, 221, 222, 223, 224, 225, 226, 227, 228, 229, 230, 231, 232, 233, 234, 235, 236, 237, 238, 239, 240, 241, 242, 243, 244, 245, 246, 247, 248, 249, 250, 251, 252, 253, 254, 255, 256, 257, 258, 259, 260, 261, 262, 263, 264, 265, 266, 267, 268, 269, 270, 271, 272, 273, 274, 275, 276, 277, 278, 279, 280, 281, 282, 283, 284, 285, 286, 287, 288, 289, 290, 291, 292, 293, 294, 295, 296, 297, 298, 299, 300, 301, 302, 303, 304, 305, 306, 307, 308, 309, 310, 311, 312, 313, 314, 315, 316, 317, 318, 319, 320, 321, 322, 323, 324, 325, 326, 327, 328, 329, 330],
      "AcquisitionTime": ["124833.270000", "124834.272500", "124835.277500", "124836.280000", "124837.285000", "124838.290000", "124839.292500", "124840.297500", "124841.300000", "124842.305000", "124843.310000", "124844.312500", "124845.317500", "124846.320000", "124847.325000", "124848.330000", "124849.332500", "124850.337500", "124851.340000", "124852.345000", "124853.350000", "124854.352500", "124855.357500", "124856.362500", "124857.365000", "124858.370000", "124859.372500", "124900.377500", "124901.382500", "124902.385000", "124903.390000", "124904.392500", "124905.397500", "124906.402500", "124907.405000", "124908.410000", "124909.412500", "124910.417500", "124911.422500", "124912.425000", "124913.430000", "124914.432500", "124915.437500", "124916.442500", "124917.445000", "124918.450000", "124919.452500", "124920.457500", "124921.462500", "124922.465000", "124923.470000", "124924.475000", "124925.477500", "124926.482500", "124927.485000", "124928.490000", "124929.495000", "124930.497500", "124931.502500", "124932.505000", "124933.510000", "124934.515000", "124935.517500", "124936.522500", "124937.525000", "124938.530000", "124939.535000", "124940.537500", "124941.542500", "124942.545000", "124943.550000", "124944.555000", "124945.557500", "124946.562500", "124947.565000", "124948.570000", "124949.575000", "124950.577500", "124951.582500", "124952.585000", "124953.590000", "124954.595000", "124955.597500", "124956.602500", "124957.607500", "124958.610000", "124959.615000", "125000.617500", "125001.622500", "125002.627500", "125003.630000", "125004.635000", "125005.637500", "125006.642500", "125007.647500", "125008.650000", "125009.655000", "125010.657500", "125011.662500", "125012.667500", "125013.670000", "125014.675000", "125015.677500", "125016.682500", "125017.687500", "125018.690000", "125019.695000", "125020.697500", "125021.702500", "125022.707500", "125023.710000", "125024.715000", "125025.717500", "125026.722500", "125027.727500", "125028.730000", "125029.735000", "125030.740000", "125031.742500", "125032.747500", "125033.750000", "125034.755000", "125035.760000", "125036.762500", "125037.767500", "125038.770000", "125039.775000", "125040.780000", "125041.782500", "125042.787500", "125043.790000", "125044.795000", "125045.800000", "125046.802500", "125047.807500", "125048.810000", "125049.815000", "125050.820000", "125051.822500", "125052.827500", "125053.830000", "125054.835000", "125055.840000", "125056.842500", "125057.847500", "125058.852500", "125059.855000", "125100.860000", "125101.862500", "125102.867500", "125103.872500", "125104.875000", "125105.880000", "125106.882500", "125107.887500", "125108.892500", "125109.895000", "125110.900000", "125111.902500", "125112.907500", "125113.912500", "125114.915000", "125115.920000", "125116.922500", "125117.927500", "125118.932500", "125119.935000", "125120.940000", "125121.942500", "125122.947500", "125123.952500", "125124.955000", "125125.960000", "125126.962500", "125127.967500", "125128.972500", "125129.975000", "125130.980000", "125131.985000", "125132.987500", "125133.992500", "125134.995000", "125136.000000", "125137.005000", "125138.007500", "125139.012500", "125140.015000", "125141.020000", "125142.025000", "125143.027500", "125144.032500", "125145.035000", "125146.040000", "125147.045000", "125148.047500", "125149.052500", "125150.055000", "125151.060000", "125152.065000", "125153.067500", "125154.072500", "125155.075000", "125156.080000", "125157.085000", "125158.087500", "125159.092500", "125200.095000", "125201.100000", "125202.105000", "125203.107500", "125204.112500", "125205.117500", "125206.120000", "125207.125000", "125208.127500", "125209.132500", "125210.137500", "125211.140000", "125212.145000", "125213.147500", "125214.152500", "125215.157500", "125216.160000", "125217.165000", "125218.167500", "125219.172500", "125220.177500", "125221.180000", "125222.185000", "125223.187500", "125224.192500", "125225.197500", "125226.200000", "125227.205000", "125228.207500", "125229.212500", "125230.217500", "125231.220000", "125232.225000", "125233.230000", "125234.232500", "125235.237500", "125236.240000", "125237.245000", "125238.250000", "125239.252500", "125240.257500", "125241.260000", "125242.265000", "125243.270000", "125244.272500", "125245.277500", "125246.280000", "125247.285000", "125248.290000", "125249.292500", "125250.297500", "125251.300000", "125252.305000", "125253.310000", "125254.312500", "125255.317500", "125256.320000", "125257.325000", "125258.330000", "125259.332500", "125300.337500", "125301.340000", "125302.345000", "125303.350000", "125304.352500", "125305.357500", "125306.362500", "125307.365000", "125308.370000", "125309.372500", "125310.377500", "125311.382500", "125312.385000", "125313.390000", "125314.392500", "125315.397500", "125316.402500", "125317.405000", "125318.410000", "125319.412500", "125320.417500", "125321.422500", "125322.425000", "125323.430000", "125324.432500", "125325.437500", "125326.442500", "125327.445000", "125328.450000", "125329.452500", "125330.457500", "125331.462500", "125332.465000", "125333.470000", "125334.475000", "125335.477500", "125336.482500", "125337.485000", "125338.490000", "125339.495000", "125340.497500", "125341.502500", "125342.505000", "125343.510000", "125344.515000", "125345.517500", "125346.522500", "125347.525000", "125348.530000", "125349.535000", "125350.537500", "125351.542500", "125352.545000", "125353.550000", "125354.555000", "125355.557500", "125356.562500", "125357.565000", "125358.570000", "125359.575000", "125400.577500", "125401.582500", "125402.585000", "125403.590000"],
      "ContentTime": ["124903.515000", "124903.515000", "124903.515000", "124903.515000", "124903.515000", "124903.515000", "124903.515000", "124903.531000", "124903.531000", "124903.531000", "124903.531000", "124903.531000", "124903.531000", "124903.546000", "124903.546000", "124903.546000", "124903.546000", "124903.546000", "124903.546000", "124903.546000", "124903.562000", "124903.562000", "124903.562000", "124903.562000", "124903.562000", "124903.578000", "124903.578000", "124903.578000", "124903.578000", "124923.281000", "124923.281000", "124923.296000", "124923.296000", "124923.296000", "124923.296000", "124923.296000", "124923.296000", "124923.296000", "124923.312000", "124923.312000", "124923.312000", "124923.312000", "124923.312000", "124923.312000", "124923.312000", "124923.312000", "124923.328000", "124923.328000", "124923.328000", "124943.281000", "124943.281000", "124943.296000", "124943.296000", "124943.296000", "124943.296000", "124943.296000", "124943.296000", "124943.296000", "124943.296000", "124943.312000", "124943.312000", "124943.312000", "124943.312000", "124943.312000", "124943.328000", "124943.328000", "124943.328000", "124943.328000", "124943.328000", "125003.281000", "125003.281000", "125003.296000", "125003.296000", "125003.296000", "125003.296000", "125003.296000", "125003.312000", "125003.312000", "125003.312000", "125003.312000", "125003.312000", "125003.312000", "125003.312000", "125003.328000", "125003.328000", "125003.328000", "125003.328000", "125003.328000", "125003.328000", "125023.281000", "125023.281000", "125023.296000", "125023.296000", "125023.296000", "125023.296000", "125023.296000", "125023.296000", "125023.312000", "125023.312000", "125023.312000", "125023.312000", "125023.312000", "125023.312000", "125023.312000", "125023.328000", "125023.328000", "125023.328000", "125023.328000", "125023.328000", "125043.281000", "125043.281000", "125043.296000", "125043.296000", "125043.296000", "125043.296000", "125043.296000", "125043.296000", "125043.296000", "125043.296000", "125043.312000", "125043.312000", "125043.312000", "125043.312000", "125043.312000", "125043.312000", "125043.328000", "125043.328000", "125043.328000", "125043.328000", "125103.281000", "125103.281000", "125103.296000", "125103.296000", "125103.296000", "125103.296000", "125103.296000", "125103.296000", "125103.296000", "125103.296000", "125103.312000", "125103.312000", "125103.312000", "125103.312000", "125103.312000", "125103.312000", "125103.312000", "125103.328000", "125103.328000", "125103.328000", "125123.281000", "125123.281000", "125123.281000", "125123.296000", "125123.296000", "125123.296000", "125123.296000", "125123.296000", "125123.296000", "125123.312000", "125123.312000", "125123.312000", "125123.312000", "125123.312000", "125123.328000", "125123.328000", "125123.328000", "125123.328000", "125123.328000", "125123.328000", "125143.281000", "125143.281000", "125143.296000", "125143.296000", "125143.296000", "125143.296000", "125143.296000", "125143.296000", "125143.296000", "125143.296000", "125143.312000", "125143.312000", "125143.312000", "125143.312000", "125143.312000", "125143.312000", "125143.312000", "125143.328000", "125143.328000", "125143.328000", "125203.281000", "125203.296000", "125203.296000", "125203.296000", "125203.312000", "125203.312000", "125203.312000", "125203.312000", "125203.312000", "125203.312000", "125203.312000", "125203.312000", "125203.328000", "125203.328000", "125203.328000", "125203.328000", "125203.328000", "125203.328000", "125203.328000", "125203.343000", "125223.281000", "125223.281000", "125223.296000", "125223.296000", "125223.296000", "125223.296000", "125223.296000", "125223.296000", "125223.296000", "125223.312000", "125223.312000", "125223.312000", "125223.312000", "125223.312000", "125223.312000", "125223.312000", "125223.312000", "125223.328000", "125223.328000", "125223.328000", "125243.281000", "125243.281000", "125243.296000", "125243.296000", "125243.296000", "125243.296000", "125243.296000", "125243.296000", "125243.296000", "125243.296000", "125243.312000", "125243.312000", "125243.312000", "125243.312000", "125243.312000", "125243.312000", "125243.328000", "125243.328000", "125243.328000", "125243.328000", "125303.281000", "125303.281000", "125303.296000", "125303.296000", "125303.296000", "125303.296000", "125303.296000", "125303.296000", "125303.296000", "125303.296000", "125303.312000", "125303.312000", "125303.312000", "125303.312000", "125303.312000", "125303.312000", "125303.312000", "125303.328000", "125303.328000", "125303.328000", "125323.281000", "125323.281000", "125323.296000", "125323.296000", "125323.296000", "125323.296000", "125323.296000", "125323.296000", "125323.296000", "125323.296000", "125323.312000", "125323.312000", "125323.312000", "125323.312000", "125323.312000", "125323.312000", "125323.328000", "125323.328000", "125323.328000", "125323.328000", "125343.281000", "125343.281000", "125343.296000", "125343.296000", "125343.296000", "125343.296000", "125343.296000", "125343.296000", "125343.296000", "125343.296000", "125343.312000", "125343.312000", "125343.312000", "125343.312000", "125343.312000", "125343.312000", "125343.312000", "125343.328000", "125343.328000", "125343.328000", "125403.281000", "125403.281000", "125403.296000", "125403.296000", "125403.296000", "125403.296000", "125403.296000", "125403.312000", "125403.312000", "125403.312000", "125403.312000", "125403.312000", "125403.312000", "125403.312000", "125403.312000", "125403.328000", "125403.328000", "125403.328000", "125403.328000", "125403.328000", "125408.984000"],
      "InstanceCreationTime": ["124903.515000", "124903.515000", "124903.515000", "124903.515000", "124903.515000", "124903.515000", "124903.515000", "124903.531000", "124903.531000", "124903.531000", "124903.531000", "124903.531000", "124903.531000", "124903.546000", "124903.546000", "124903.546000", "124903.546000", "124903.546000", "124903.546000", "124903.546000", "124903.562000", "124903.562000", "124903.562000", "124903.562000", "124903.562000", "124903.578000", "124903.578000", "124903.578000", "124903.578000", "124923.281000", "124923.281000", "124923.296000", "124923.296000", "124923.296000", "124923.296000", "124923.296000", "124923.296000", "124923.296000", "124923.312000", "124923.312000", "124923.312000", "124923.312000", "124923.312000", "124923.312000", "124923.312000", "124923.312000", "124923.328000", "124923.328000", "124923.328000", "124943.281000", "124943.281000", "124943.296000", "124943.296000", "124943.296000", "124943.296000", "124943.296000", "124943.296000", "124943.296000", "124943.296000", "124943.312000", "124943.312000", "124943.312000", "124943.312000", "124943.312000", "124943.328000", "124943.328000", "124943.328000", "124943.328000", "124943.328000", "125003.281000", "125003.281000", "125003.296000", "125003.296000", "125003.296000", "125003.296000", "125003.296000", "125003.312000", "125003.312000", "125003.312000", "125003.312000", "125003.312000", "125003.312000", "125003.312000", "125003.328000", "125003.328000", "125003.328000", "125003.328000", "125003.328000", "125003.328000", "125023.281000", "125023.281000", "125023.296000", "125023.296000", "125023.296000", "125023.296000", "125023.296000", "125023.296000", "125023.312000", "125023.312000", "125023.312000", "125023.312000", "125023.312000", "125023.312000", "125023.312000", "125023.328000", "125023.328000", "125023.328000", "125023.328000", "125023.328000", "125043.281000", "125043.281000", "125043.296000", "125043.296000", "125043.296000", "125043.296000", "125043.296000", "125043.296000", "125043.296000", "125043.296000", "125043.312000", "125043.312000", "125043.312000", "125043.312000", "125043.312000", "125043.312000", "125043.328000", "125043.328000", "125043.328000", "125043.328000", "125103.281000", "125103.281000", "125103.296000", "125103.296000", "125103.296000", "125103.296000", "125103.296000", "125103.296000", "125103.296000", "125103.296000", "125103.312000", "125103.312000", "125103.312000", "125103.312000", "125103.312000", "125103.312000", "125103.312000", "125103.328000", "125103.328000", "125103.328000", "125123.281000", "125123.281000", "125123.281000", "125123.296000", "125123.296000", "125123.296000", "125123.296000", "125123.296000", "125123.296000", "125123.312000", "125123.312000", "125123.312000", "125123.312000", "125123.312000", "125123.328000", "125123.328000", "125123.328000", "125123.328000", "125123.328000", "125123.328000", "125143.281000", "125143.281000", "125143.296000", "125143.296000", "125143.296000", "125143.296000", "125143.296000", "125143.296000", "125143.296000", "125143.296000", "125143.312000", "125143.312000", "125143.312000", "125143.312000", "125143.312000", "125143.312000", "125143.312000", "125143.328000", "125143.328000", "125143.328000", "125203.281000", "125203.296000", "125203.296000", "125203.296000", "125203.312000", "125203.312000", "125203.312000", "125203.312000", "125203.312000", "125203.312000", "125203.312000", "125203.312000", "125203.328000", "125203.328000", "125203.328000", "125203.328000", "125203.328000", "125203.328000", "125203.328000", "125203.343000", "125223.281000", "125223.281000", "125223.296000", "125223.296000", "125223.296000", "125223.296000", "125223.296000", "125223.296000", "125223.296000", "125223.312000", "125223.312000", "125223.312000", "125223.312000", "125223.312000", "125223.312000", "125223.312000", "125223.312000", "125223.328000", "125223.328000", "125223.328000", "125243.281000", "125243.281000", "125243.296000", "125243.296000", "125243.296000", "125243.296000", "125243.296000", "125243.296000", "125243.296000", "125243.296000", "125243.312000", "125243.312000", "125243.312000", "125243.312000", "125243.312000", "125243.312000", "125243.328000", "125243.328000", "125243.328000", "125243.328000", "125303.281000", "125303.281000", "125303.296000", "125303.296000", "125303.296000", "125303.296000", "125303.296000", "125303.296000", "125303.296000", "125303.296000", "125303.312000", "125303.312000", "125303.312000", "125303.312000", "125303.312000", "125303.312000", "125303.312000", "125303.328000", "125303.328000", "125303.328000", "125323.281000", "125323.281000", "125323.296000", "125323.296000", "125323.296000", "125323.296000", "125323.296000", "125323.296000", "125323.296000", "125323.296000", "125323.312000", "125323.312000", "125323.312000", "125323.312000", "125323.312000", "125323.312000", "125323.328000", "125323.328000", "125323.328000", "125323.328000", "125343.281000", "125343.281000", "125343.296000", "125343.296000", "125343.296000", "125343.296000", "125343.296000", "125343.296000", "125343.296000", "125343.296000", "125343.312000", "125343.312000", "125343.312000", "125343.312000", "125343.312000", "125343.312000", "125343.312000", "125343.328000", "125343.328000", "125343.328000", "125403.281000", "125403.281000", "125403.296000", "125403.296000", "125403.296000", "125403.296000", "125403.296000", "125403.312000", "125403.312000", "125403.312000", "125403.312000", "125403.312000", "125403.312000", "125403.312000", "125403.312000", "125403.328000", "125403.328000", "125403.328000", "125403.328000", "125403.328000", "125408.984000"],
      "InstanceNumber": [1, 2, 3, 4, 5, 6, 7, 8, 9, 10, 11, 12, 13, 14, 15, 16, 17, 18, 19, 20, 21, 22, 23, 24, 25, 26, 27, 28, 29, 30, 31, 32, 33, 34, 35, 36, 37, 38, 39, 40, 41, 42, 43, 44, 45, 46, 47, 48, 49, 50, 51, 52, 53, 54, 55, 56, 57, 58, 59, 60, 61, 62, 63, 64, 65, 66, 67, 68, 69, 70, 71, 72, 73, 74, 75, 76, 77, 78, 79, 80, 81, 82, 83, 84, 85, 86, 87, 88, 89, 90, 91, 92, 93, 94, 95, 96, 97, 98, 99, 100, 101, 102, 103, 104, 105, 106, 107, 108, 109, 110, 111, 112, 113, 114, 115, 116, 117, 118, 119, 120, 121, 122, 123, 124, 125, 126, 127, 128, 129, 130, 131, 132, 133, 134, 135, 136, 137, 138, 139, 140, 141, 142, 143, 144, 145, 146, 147, 148, 149, 150, 151, 152, 153, 154, 155, 156, 157, 158, 159, 160, 161, 162, 163, 164, 165, 166, 167, 168, 169, 170, 171, 172, 173, 174, 175, 176, 177, 178, 179, 180, 181, 182, 183, 184, 185, 186, 187, 188, 189, 190, 191, 192, 193, 194, 195, 196, 197, 198, 199, 200, 201, 202, 203, 204, 205, 206, 207, 208, 209, 210, 211, 212, 213, 214, 215, 216, 217, 218, 219, 220, 221, 222, 223, 224, 225, 226, 227, 228, 229, 230, 231, 232, 233, 234, 235, 236, 237, 238, 239, 240, 241, 242, 243, 244, 245, 246, 247, 248, 249, 250, 251, 252, 253, 254, 255, 256, 257, 258, 259, 260, 261, 262, 263, 264, 265, 266, 267, 268, 269, 270, 271, 272, 273, 274, 275, 276, 277, 278, 279, 280, 281, 282, 283, 284, 285, 286, 287, 288, 289, 290, 291, 292, 293, 294, 295, 296, 297, 298, 299, 300, 301, 302, 303, 304, 305, 306, 307, 308, 309, 310, 311, 312, 313, 314, 315, 316, 317, 318, 319, 320, 321, 322, 323, 324, 325, 326, 327, 328, 329, 330],
      "LargestImagePixelValue": [2734, 2717, 2751, 2726, 2713, 2682, 2673, 2697, 2693, 2633, 2672, 2644, 2679, 2638, 2702, 2642, 2632, 2604, 2643, 2652, 2648, 2662, 2683, 2639, 2658, 2663, 2668, 2651, 2647, 2661, 2669, 2642, 2623, 2641, 2620, 2628, 2618, 2643, 2622, 2672, 2643, 2647, 2612, 2619, 2656, 2655, 2617, 2631, 2642, 2631, 2655, 2631, 2671, 2642, 2632, 2641, 2631, 2618, 2633, 2631, 2695, 2647, 2642, 2657, 2604, 2624, 2657, 2689, 2629, 2678, 2607, 2635, 2650, 2639, 2659, 2639, 2649, 2683, 2664, 2640, 2651, 2642, 2680, 2650, 2678, 2661, 2644, 2658, 2671, 2657, 2676, 2624, 2612, 2631, 2658, 2652, 2680, 2709, 2690, 2657, 2626, 2654, 2660, 2686, 2698, 2685, 2630, 2657, 2651, 2661, 2646, 2655, 2660, 2647, 2637, 2659, 2625, 2634, 2654, 2633, 2650, 2602, 2640, 2656, 2584, 2641, 2639, 2630, 2658, 2668, 2631, 2631, 2648, 2644, 2669, 2644, 2649, 2667, 2667, 2657, 2594, 2589, 2612, 2659, 2651, 2648, 2614, 2647, 2686, 2671, 2635, 2611, 2674, 2720, 2690, 2621, 2611, 2654, 2647, 2638, 2655, 2661, 2662, 2648, 2634, 2637, 2645, 2605, 2691, 2652, 2625, 2669, 2659, 2611, 2642, 2650, 2617, 2646, 2674, 2646, 2680, 2645, 2665, 2661, 2676, 2667, 2645, 2626, 2652, 2665, 2622, 2613, 2667, 2667, 2665, 2650, 2626, 2642, 2636, 2655, 2625, 2587, 2649, 2643, 2647, 2622, 2582, 2620, 2614, 2650, 2605, 2663, 2645, 2626, 2642, 2607, 2610, 2634, 2668, 2640, 2659, 2635, 2629, 2652, 2637, 2573, 2601, 2624, 2611, 2626, 2648, 2637, 2664, 2677, 2636, 2630, 2606, 2638, 2693, 2646, 2633, 2596, 2596, 2621, 2616, 2618, 2581, 2632, 2622, 2642, 2648, 2605, 2609, 2634, 2633, 2658, 2595, 2633, 2629, 2625, 2636, 2638, 2626, 2638, 2601, 2600, 2570, 2554, 2560, 2557, 2588, 2551, 2633, 2616, 2616, 2584, 2594, 2568, 2588, 2578, 2597, 2650, 2654, 2617, 2597, 2591, 2563, 2580, 2529, 2532, 2549, 2545, 2569, 2621, 2577, 2574, 2569, 2578, 2589, 2572, 2568, 2567, 2586, 2584, 2536, 2552, 2510, 2530, 2552, 2529, 2551, 2558, 2516, 2565, 2594, 2577, 2609, 2651, 2615, 2618, 2594, 2608, 2572, 2540, 2499, 2502, 2550, 2526, 2571, 2530],
      "WindowCenter": [419.0, 419.0, 418.0, 418.0, 418.0, 418.0, 418.0, 419.0, 421.0, 422.0, 423.0, 423.0, 423.0, 424.0, 425.0, 425.0, 426.0, 426.0, 426.0, 426.0, 426.0, 427.0, 428.0, 428.0, 429.0, 428.0, 428.0, 427.0, 427.0, 428.0, 428.0, 428.0, 428.0, 429.0, 429.0, 429.0, 427.0, 427.0, 426.0, 427.0, 427.0, 427.0, 427.0, 427.0, 428.0, 427.0, 427.0, 426.0, 427.0, 428.0, 428.0, 427.0, 428.0, 427.0, 428.0, 428.0, 428.0, 429.0, 429.0, 428.0, 428.0, 427.0, 427.0, 427.0, 427.0, 426.0, 426.0, 426.0, 426.0, 426.0, 426.0, 425.0, 425.0, 424.0, 424.0, 424.0, 424.0, 424.0, 425.0, 426.0, 426.0, 426.0, 427.0, 426.0, 426.0, 426.0, 425.0, 426.0, 426.0, 425.0, 425.0, 425.0, 425.0, 425.0, 425.0, 423.0, 423.0, 423.0, 423.0, 424.0, 423.0, 422.0, 423.0, 423.0, 424.0, 425.0, 426.0, 425.0, 426.0, 426.0, 425.0, 425.0, 425.0, 425.0, 425.0, 426.0, 426.0, 427.0, 427.0, 429.0, 427.0, 427.0, 427.0, 426.0, 424.0, 424.0, 424.0, 425.0, 424.0, 424.0, 424.0, 423.0, 423.0, 424.0, 425.0, 425.0, 425.0, 424.0, 424.0, 424.0, 425.0, 425.0, 425.0, 424.0, 423.0, 422.0, 421.0, 421.0, 422.0, 422.0, 422.0, 423.0, 425.0, 425.0, 425.0, 425.0, 425.0, 426.0, 425.0, 424.0, 424.0, 424.0, 424.0, 424.0, 426.0, 427.0, 428.0, 426.0, 425.0, 424.0, 424.0, 424.0, 423.0, 421.0, 419.0, 418.0, 416.0, 416.0, 416.0, 417.0, 418.0, 419.0, 419.0, 419.0, 420.0, 421.0, 421.0, 422.0, 423.0, 423.0, 423.0, 424.0, 424.0, 425.0, 426.0, 427.0, 427.0, 426.0, 427.0, 428.0, 429.0, 428.0, 429.0, 429.0, 429.0, 428.0, 427.0, 427.0, 426.0, 426.0, 426.0, 426.0, 426.0, 426.0, 425.0, 425.0, 424.0, 424.0, 424.0, 424.0, 424.0, 424.0, 426.0, 427.0, 427.0, 427.0, 427.0, 426.0, 424.0, 424.0, 424.0, 424.0, 423.0, 423.0, 424.0, 424.0, 424.0, 425.0, 425.0, 426.0, 425.0, 424.0, 424.0, 424.0, 425.0, 424.0, 424.0, 425.0, 424.0, 424.0, 424.0, 423.0, 423.0, 424.0, 424.0, 424.0, 425.0, 428.0, 429.0, 426.0, 425.0, 425.0, 426.0, 426.0, 427.0, 428.0, 425.0, 422.0, 421.0, 420.0, 419.0, 419.0, 420.0, 420.0, 420.0, 421.0, 422.0, 422.0, 423.0, 425.0, 425.0, 426.0, 426.0, 426.0, 425.0, 427.0, 427.0, 428.0, 427.0, 425.0, 422.0, 420.0, 418.0, 418.0, 420.0, 421.0, 421.0, 422.0, 423.0, 424.0, 425.0, 425.0, 424.0, 424.0, 425.0, 427.0, 426.0, 425.0, 425.0, 423.0, 421.0, 419.0, 419.0, 419.0, 420.0, 422.0, 422.0, 423.0, 424.0, 426.0, 426.0, 424.0, 425.0, 426.0, 424.0, 422.0, 421.0, 424.0, 426.0, 427.0],
