{
  "AcquisitionMatrixPE": 104,
  "AcquisitionNumber": 1,
  "AcquisitionTime": "13:38:54.670000",
  "BandwidthPerPixelPhaseEncode": 43.054,
  "BaseResolution": 104,
  "CoilString": "C:E1_2",
  "ConversionSoftware": "dcm2niix",
  "ConversionSoftwareVersion": "v1.0.20191031",
  "DerivedVendorReportedEchoSpacing": 0.000669999,
  "DeviceSerialNumber": "18932",
  "DwellTime": 2.8e-06,
  "EchoTime": 0.02,
  "EffectiveEchoSpacing": 0.000223333,
  "FlipAngle": 30,
  "ImageComments": "Unaliased_MB2_PE2",
  "ImageOrientationPatientDICOM": [1, 0, 0, 0, 0.988756, -0.149535],
  "ImageType": [
    "ORIGINAL",
    "PRIMARY",
    "M",
    "MB",
    "ND",
    "MOSAIC"
],
  "ImagingFrequency": 297.229,
  "InPlanePhaseEncodingDirectionDICOM": "COL",
  "InstitutionAddress": "Richmond_Street_North_1151_London_409EF2_Ontario_CA_N6A_5B7",
  "InstitutionName": "Robarts_Reserch_Institute",
  "InstitutionalDepartmentName": "Department",
  "MRAcquisitionType": "2D",
  "MagneticFieldStrength": 6.98,
  "Manufacturer": "Siemens",
  "ManufacturersModelName": "Investigational_Device_7T",
  "Modality": "MR",
  "MultibandAccelerationFactor": 2,
  "ParallelReductionFactorInPlane": 3,
  "PartialFourier": 0.875,
  "PatientPosition": "HFS",
  "PercentPhaseFOV": 100,
  "PhaseEncodingDirection": "j-",
  "PhaseEncodingSteps": 91,
  "PhaseResolution": 1,
  "PixelBandwidth": 1717,
  "ProcedureStepDescription": "Diedrichsen_SeqRep4",
  "ProtocolName": "mbep2d_bold_mb2_p3_AP_2iso",
  "PulseSequenceDetails": "%CustomerSeq%_cmrr_mbep2d_bold",
  "ReceiveCoilName": "CFMM_8Tx32Rx",
  "ReconMatrixPE": 104,
  "RefLinesPE": 36,
  "RepetitionTime": 1,
  "ScanOptions": "PFP_FS",
  "ScanningSequence": "EP",
  "SequenceName": "epfid2d1_104",
  "SequenceVariant": "SK_SS",
  "SeriesDescription": "mbep2d_bold_mb2_p3_AP_2iso",
  "SeriesNumber": 29,
  "ShimSetting": [-16, 1963, 280, 451, 67, -195, -266, -123],
  "SliceThickness": 2,
  "SliceTiming": [0, 0.23, 0.4575, 0.685, 0.9125, 0.1375, 0.365, 0.595, 0.8225, 0.0475, 0.275, 0.5025, 0.73, 0.96, 0.1825, 0.4125, 0.64, 0.8675, 0.0925, 0.32, 0.5475, 0.7775, 0, 0.23, 0.4575, 0.685, 0.9125, 0.1375, 0.365, 0.595, 0.8225, 0.0475, 0.275, 0.5025, 0.73, 0.96, 0.1825, 0.4125, 0.64, 0.8675, 0.0925, 0.32, 0.5475, 0.7775],
  "SoftwareVersions": "syngo_MR_B17",
  "SpacingBetweenSlices": 2,
  "StationName": "MASTER",
  "TaskName": "dsp",
  "TotalReadoutTime": 0.0230033,
  "TxRefAmp": 120,
  "dcmmeta_affine": [
    [-2.0, 0.0, 0.0, 107.6319580078125],
    [0.0, 1.9775127172470093, -0.29907068610191345, -106.04757690429688],
    [0.0, 0.29907068610191345, 1.9775127172470093, -46.19629669189453],
    [0.0, 0.0, 0.0, 1.0]
],
  "dcmmeta_reorient_transform": [
    [0.0, -1.0, 0.0, 103.0],
    [1.0, 0.0, 0.0, 0.0],
    [0.0, 0.0, 1.0, 0.0],
    [0.0, 0.0, 0.0, 1.0]
],
  "dcmmeta_shape": [104, 104, 44, 330],
  "dcmmeta_slice_dim": 2,
  "dcmmeta_version": 0.6,
  "global": {
    "const": {
      "AcquisitionMatrix": [104, 0, 0, 104],
      "AngioFlag": "N",
      "BitsAllocated": 16,
      "BitsStored": 12,
      "Columns": 728,
      "EchoNumbers": 1,
      "EchoTime": 20.0,
      "EchoTrainLength": 1,
      "FlipAngle": 30.0,
      "HighBit": 11,
      "ImageOrientationPatient": [1.0, 0.0, 0.0, 0.0, 0.98875638160626, -0.1495353397458],
      "ImagePositionPatient": [-731.63196134567, -714.62022165698, 77.918034173961],
      "ImageType": [
        "ORIGINAL",
        "PRIMARY",
        "M",
        "MB",
        "ND",
        "MOSAIC"
],
      "ImagedNucleus": "1H",
      "ImagingFrequency": 297.229231,
      "InPlanePhaseEncodingDirection": "COL",
      "MRAcquisitionType": "2D",
      "MagneticFieldStrength": 6.98,
      "Manufacturer": "SIEMENS",
      "ManufacturerModelName": "Investigational_Device_7T",
      "Modality": "MR",
      "NumberOfAverages": 1.0,
      "NumberOfPhaseEncodingSteps": 91,
      "PercentPhaseFieldOfView": 100.0,
      "PercentSampling": 100.0,
      "PerformedProcedureStepStartTime": "123916.500000",
      "PhotometricInterpretation": "MONOCHROME2",
      "PixelBandwidth": 1717.0,
      "PixelRepresentation": 0,
      "PixelSpacing": [2.0, 2.0],
      "ProtocolName": "mbep2d_bold_mb2_p3_AP 2iso",
      "RepetitionTime": 1000.0,
      "Rows": 728,
      "SAR": 0.0,
      "SamplesPerPixel": 1,
      "ScanOptions": [
        "PFP",
        "FS"
],
      "ScanningSequence": "EP",
      "SequenceName": "epfid2d1_104",
      "SequenceVariant": [
        "SK",
        "SS"
],
      "SeriesDescription": "mbep2d_bold_mb2_p3_AP 2iso",
      "SeriesNumber": 29,
      "SeriesTime": "133922.281000",
      "SliceLocation": -29.819024103006,
      "SliceThickness": 2.0,
      "SmallestImagePixelValue": 0,
      "SoftwareVersions": "syngo MR B17",
      "SpacingBetweenSlices": 1.9999999990406,
      "SpecificCharacterSet": "ISO_IR 100",
      "StudyID": "1",
      "StudyTime": "123916.437000",
      "TransmitCoilName": "CFMM_8Tx32Rx",
      "VariableFlipAngleFlag": "N",
      "WindowCenterWidthExplanation": "Algo1",
      "dBdt": 0.0},
    "slices": {}
  },
  "time": {
    "samples": {
      "AcquisitionNumber": [1, 2, 3, 4, 5, 6, 7, 8, 9, 10, 11, 12, 13, 14, 15, 16, 17, 18, 19, 20, 21, 22, 23, 24, 25, 26, 27, 28, 29, 30, 31, 32, 33, 34, 35, 36, 37, 38, 39, 40, 41, 42, 43, 44, 45, 46, 47, 48, 49, 50, 51, 52, 53, 54, 55, 56, 57, 58, 59, 60, 61, 62, 63, 64, 65, 66, 67, 68, 69, 70, 71, 72, 73, 74, 75, 76, 77, 78, 79, 80, 81, 82, 83, 84, 85, 86, 87, 88, 89, 90, 91, 92, 93, 94, 95, 96, 97, 98, 99, 100, 101, 102, 103, 104, 105, 106, 107, 108, 109, 110, 111, 112, 113, 114, 115, 116, 117, 118, 119, 120, 121, 122, 123, 124, 125, 126, 127, 128, 129, 130, 131, 132, 133, 134, 135, 136, 137, 138, 139, 140, 141, 142, 143, 144, 145, 146, 147, 148, 149, 150, 151, 152, 153, 154, 155, 156, 157, 158, 159, 160, 161, 162, 163, 164, 165, 166, 167, 168, 169, 170, 171, 172, 173, 174, 175, 176, 177, 178, 179, 180, 181, 182, 183, 184, 185, 186, 187, 188, 189, 190, 191, 192, 193, 194, 195, 196, 197, 198, 199, 200, 201, 202, 203, 204, 205, 206, 207, 208, 209, 210, 211, 212, 213, 214, 215, 216, 217, 218, 219, 220, 221, 222, 223, 224, 225, 226, 227, 228, 229, 230, 231, 232, 233, 234, 235, 236, 237, 238, 239, 240, 241, 242, 243, 244, 245, 246, 247, 248, 249, 250, 251, 252, 253, 254, 255, 256, 257, 258, 259, 260, 261, 262, 263, 264, 265, 266, 267, 268, 269, 270, 271, 272, 273, 274, 275, 276, 277, 278, 279, 280, 281, 282, 283, 284, 285, 286, 287, 288, 289, 290, 291, 292, 293, 294, 295, 296, 297, 298, 299, 300, 301, 302, 303, 304, 305, 306, 307, 308, 309, 310, 311, 312, 313, 314, 315, 316, 317, 318, 319, 320, 321, 322, 323, 324, 325, 326, 327, 328, 329, 330],
      "AcquisitionTime": ["133854.670000", "133855.675000", "133856.680000", "133857.682500", "133858.687500", "133859.692500", "133900.695000", "133901.700000", "133902.702500", "133903.707500", "133904.712500", "133905.715000", "133906.720000", "133907.722500", "133908.727500", "133909.732500", "133910.735000", "133911.740000", "133912.742500", "133913.747500", "133914.752500", "133915.755000", "133916.760000", "133917.762500", "133918.767500", "133919.772500", "133920.775000", "133921.780000", "133922.782500", "133923.787500", "133924.792500", "133925.795000", "133926.800000", "133927.805000", "133928.807500", "133929.812500", "133930.815000", "133931.820000", "133932.825000", "133933.827500", "133934.832500", "133935.835000", "133936.840000", "133937.845000", "133938.847500", "133939.852500", "133940.855000", "133941.860000", "133942.865000", "133943.867500", "133944.872500", "133945.875000", "133946.880000", "133947.885000", "133948.887500", "133949.892500", "133950.895000", "133951.900000", "133952.905000", "133953.907500", "133954.912500", "133955.915000", "133956.920000", "133957.925000", "133958.927500", "133959.932500", "134000.937500", "134001.940000", "134002.945000", "134003.947500", "134004.952500", "134005.957500", "134006.960000", "134007.965000", "134008.967500", "134009.972500", "134010.977500", "134011.980000", "134012.985000", "134013.987500", "134014.992500", "134015.997500", "134017.000000", "134018.005000", "134019.007500", "134020.012500", "134021.017500", "134022.020000", "134023.025000", "134024.027500", "134025.032500", "134026.037500", "134027.040000", "134028.045000", "134029.047500", "134030.052500", "134031.057500", "134032.060000", "134033.065000", "134034.070000", "134035.072500", "134036.077500", "134037.080000", "134038.085000", "134039.090000", "134040.092500", "134041.097500", "134042.100000", "134043.105000", "134044.110000", "134045.112500", "134046.117500", "134047.120000", "134048.125000", "134049.130000", "134050.132500", "134051.137500", "134052.140000", "134053.145000", "134054.150000", "134055.152500", "134056.157500", "134057.160000", "134058.165000", "134059.170000", "134100.172500", "134101.177500", "134102.182500", "134103.185000", "134104.190000", "134105.192500", "134106.197500", "134107.202500", "134108.205000", "134109.210000", "134110.212500", "134111.217500", "134112.222500", "134113.225000", "134114.230000", "134115.232500", "134116.237500", "134117.242500", "134118.245000", "134119.250000", "134120.252500", "134121.257500", "134122.262500", "134123.265000", "134124.270000", "134125.272500", "134126.277500", "134127.282500", "134128.285000", "134129.290000", "134130.292500", "134131.297500", "134132.302500", "134133.305000", "134134.310000", "134135.315000", "134136.317500", "134137.322500", "134138.325000", "134139.330000", "134140.335000", "134141.337500", "134142.342500", "134143.345000", "134144.350000", "134145.355000", "134146.357500", "134147.362500", "134148.365000", "134149.370000", "134150.375000", "134151.377500", "134152.382500", "134153.385000", "134154.390000", "134155.395000", "134156.397500", "134157.402500", "134158.405000", "134159.410000", "134200.415000", "134201.417500", "134202.422500", "134203.425000", "134204.430000", "134205.435000", "134206.437500", "134207.442500", "134208.447500", "134209.450000", "134210.455000", "134211.457500", "134212.462500", "134213.467500", "134214.470000", "134215.475000", "134216.477500", "134217.482500", "134218.487500", "134219.490000", "134220.495000", "134221.497500", "134222.502500", "134223.507500", "134224.510000", "134225.515000", "134226.517500", "134227.522500", "134228.527500", "134229.530000", "134230.535000", "134231.537500", "134232.542500", "134233.547500", "134234.550000", "134235.555000", "134236.560000", "134237.562500", "134238.567500", "134239.570000", "134240.575000", "134241.580000", "134242.582500", "134243.587500", "134244.590000", "134245.595000", "134246.600000", "134247.602500", "134248.607500", "134249.610000", "134250.615000", "134251.620000", "134252.622500", "134253.627500", "134254.630000", "134255.635000", "134256.640000", "134257.642500", "134258.647500", "134259.650000", "134300.655000", "134301.660000", "134302.662500", "134303.667500", "134304.670000", "134305.675000", "134306.680000", "134307.682500", "134308.687500", "134309.692500", "134310.695000", "134311.700000", "134312.702500", "134313.707500", "134314.712500", "134315.715000", "134316.720000", "134317.722500", "134318.727500", "134319.732500", "134320.735000", "134321.740000", "134322.742500", "134323.747500", "134324.752500", "134325.755000", "134326.760000", "134327.762500", "134328.767500", "134329.772500", "134330.775000", "134331.780000", "134332.782500", "134333.787500", "134334.792500", "134335.795000", "134336.800000", "134337.805000", "134338.807500", "134339.812500", "134340.815000", "134341.820000", "134342.825000", "134343.827500", "134344.832500", "134345.835000", "134346.840000", "134347.845000", "134348.847500", "134349.852500", "134350.855000", "134351.860000", "134352.865000", "134353.867500", "134354.872500", "134355.875000", "134356.880000", "134357.885000", "134358.887500", "134359.892500", "134400.895000", "134401.900000", "134402.905000", "134403.907500", "134404.912500", "134405.915000", "134406.920000", "134407.925000", "134408.927500", "134409.932500", "134410.937500", "134411.940000", "134412.945000", "134413.947500", "134414.952500", "134415.957500", "134416.960000", "134417.965000", "134418.967500", "134419.972500", "134420.977500", "134421.980000", "134422.985000", "134423.987500", "134424.992500"],
      "ContentTime": ["133922.281000", "133922.296000", "133922.296000", "133922.296000", "133922.296000", "133922.296000", "133922.296000", "133922.312000", "133922.312000", "133922.312000", "133922.312000", "133922.312000", "133922.312000", "133922.312000", "133922.312000", "133922.328000", "133922.328000", "133922.328000", "133922.328000", "133922.328000", "133922.328000", "133922.328000", "133922.343000", "133922.343000", "133922.343000", "133922.343000", "133942.250000", "133942.250000", "133942.250000", "133942.265000", "133942.265000", "133942.265000", "133942.265000", "133942.265000", "133942.265000", "133942.265000", "133942.281000", "133942.281000", "133942.281000", "133942.281000", "133942.281000", "133942.281000", "133942.296000", "133942.296000", "133942.296000", "133942.296000", "134002.250000", "134002.250000", "134002.265000", "134002.265000", "134002.265000", "134002.265000", "134002.265000", "134002.265000", "134002.281000", "134002.281000", "134002.281000", "134002.281000", "134002.281000", "134002.281000", "134002.281000", "134002.281000", "134002.296000", "134002.296000", "134002.296000", "134002.296000", "134022.250000", "134022.250000", "134022.250000", "134022.265000", "134022.265000", "134022.265000", "134022.265000", "134022.265000", "134022.265000", "134022.265000", "134022.281000", "134022.281000", "134022.281000", "134022.281000", "134022.281000", "134022.281000", "134022.296000", "134022.296000", "134022.296000", "134022.296000", "134042.250000", "134042.250000", "134042.265000", "134042.265000", "134042.265000", "134042.265000", "134042.265000", "134042.265000", "134042.265000", "134042.265000", "134042.281000", "134042.281000", "134042.281000", "134042.281000", "134042.281000", "134042.281000", "134042.296000", "134042.296000", "134042.296000", "134042.296000", "134102.250000", "134102.250000", "134102.265000", "134102.265000", "134102.265000", "134102.265000", "134102.265000", "134102.265000", "134102.281000", "134102.281000", "134102.281000", "134102.281000", "134102.281000", "134102.281000", "134102.281000", "134102.296000", "134102.296000", "134102.296000", "134102.296000", "134102.296000", "134122.250000", "134122.250000", "134122.265000", "134122.265000", "134122.265000", "134122.265000", "134122.265000", "134122.265000", "134122.265000", "134122.265000", "134122.281000", "134122.281000", "134122.281000", "134122.281000", "134122.281000", "134122.281000", "134122.281000", "134122.296000", "134122.296000", "134122.296000", "134142.250000", "134142.265000", "134142.265000", "134142.265000", "134142.265000", "134142.265000", "134142.265000", "134142.265000", "134142.281000", "134142.281000", "134142.281000", "134142.281000", "134142.281000", "134142.281000", "134142.281000", "134142.296000", "134142.296000", "134142.296000", "134142.296000", "134142.296000", "134202.250000", "134202.250000", "134202.265000", "134202.265000", "134202.265000", "134202.265000", "134202.265000", "134202.265000", "134202.265000", "134202.265000", "134202.281000", "134202.281000", "134202.281000", "134202.281000", "134202.281000", "134202.281000", "134202.281000", "134202.296000", "134202.296000", "134202.296000", "134222.250000", "134222.250000", "134222.265000", "134222.265000", "134222.265000", "134222.265000", "134222.265000", "134222.281000", "134222.281000", "134222.281000", "134222.281000", "134222.281000", "134222.281000", "134222.281000", "134222.296000", "134222.296000", "134222.296000", "134222.296000", "134222.296000", "134222.296000", "134242.250000", "134242.250000", "134242.265000", "134242.265000", "134242.265000", "134242.265000", "134242.265000", "134242.265000", "134242.281000", "134242.281000", "134242.281000", "134242.281000", "134242.281000", "134242.281000", "134242.281000", "134242.296000", "134242.296000", "134242.296000", "134242.296000", "134242.296000", "134302.250000", "134302.250000", "134302.265000", "134302.265000", "134302.265000", "134302.265000", "134302.265000", "134302.265000", "134302.265000", "134302.281000", "134302.281000", "134302.281000", "134302.281000", "134302.281000", "134302.281000", "134302.281000", "134302.296000", "134302.296000", "134302.296000", "134302.296000", "134322.250000", "134322.250000", "134322.265000", "134322.265000", "134322.265000", "134322.265000", "134322.265000", "134322.281000", "134322.281000", "134322.281000", "134322.281000", "134322.281000", "134322.281000", "134322.281000", "134322.296000", "134322.296000", "134322.296000", "134322.296000", "134322.296000", "134322.296000", "134342.250000", "134342.250000", "134342.265000", "134342.265000", "134342.265000", "134342.265000", "134342.265000", "134342.281000", "134342.281000", "134342.281000", "134342.281000", "134342.281000", "134342.281000", "134342.281000", "134342.296000", "134342.296000", "134342.296000", "134342.296000", "134342.296000", "134342.296000", "134402.250000", "134402.250000", "134402.265000", "134402.265000", "134402.265000", "134402.265000", "134402.265000", "134402.265000", "134402.265000", "134402.265000", "134402.281000", "134402.281000", "134402.281000", "134402.281000", "134402.281000", "134402.281000", "134402.281000", "134402.296000", "134402.296000", "134402.296000", "134422.250000", "134422.250000", "134422.265000", "134422.265000", "134422.265000", "134422.265000", "134422.265000", "134422.265000", "134422.265000", "134422.265000", "134422.281000", "134422.281000", "134422.281000", "134422.281000", "134422.281000", "134422.281000", "134422.281000", "134422.296000", "134422.296000", "134422.296000", "134430.906000", "134430.906000", "134430.906000", "134430.906000"],
      "InstanceCreationTime": ["133922.281000", "133922.296000", "133922.296000", "133922.296000", "133922.296000", "133922.296000", "133922.296000", "133922.312000", "133922.312000", "133922.312000", "133922.312000", "133922.312000", "133922.312000", "133922.312000", "133922.312000", "133922.328000", "133922.328000", "133922.328000", "133922.328000", "133922.328000", "133922.328000", "133922.328000", "133922.343000", "133922.343000", "133922.343000", "133922.343000", "133942.250000", "133942.250000", "133942.250000", "133942.265000", "133942.265000", "133942.265000", "133942.265000", "133942.265000", "133942.265000", "133942.265000", "133942.281000", "133942.281000", "133942.281000", "133942.281000", "133942.281000", "133942.281000", "133942.296000", "133942.296000", "133942.296000", "133942.296000", "134002.250000", "134002.250000", "134002.265000", "134002.265000", "134002.265000", "134002.265000", "134002.265000", "134002.265000", "134002.281000", "134002.281000", "134002.281000", "134002.281000", "134002.281000", "134002.281000", "134002.281000", "134002.281000", "134002.296000", "134002.296000", "134002.296000", "134002.296000", "134022.250000", "134022.250000", "134022.250000", "134022.265000", "134022.265000", "134022.265000", "134022.265000", "134022.265000", "134022.265000", "134022.265000", "134022.281000", "134022.281000", "134022.281000", "134022.281000", "134022.281000", "134022.281000", "134022.296000", "134022.296000", "134022.296000", "134022.296000", "134042.250000", "134042.250000", "134042.265000", "134042.265000", "134042.265000", "134042.265000", "134042.265000", "134042.265000", "134042.265000", "134042.265000", "134042.281000", "134042.281000", "134042.281000", "134042.281000", "134042.281000", "134042.281000", "134042.296000", "134042.296000", "134042.296000", "134042.296000", "134102.250000", "134102.250000", "134102.265000", "134102.265000", "134102.265000", "134102.265000", "134102.265000", "134102.265000", "134102.281000", "134102.281000", "134102.281000", "134102.281000", "134102.281000", "134102.281000", "134102.281000", "134102.296000", "134102.296000", "134102.296000", "134102.296000", "134102.296000", "134122.250000", "134122.250000", "134122.265000", "134122.265000", "134122.265000", "134122.265000", "134122.265000", "134122.265000", "134122.265000", "134122.265000", "134122.281000", "134122.281000", "134122.281000", "134122.281000", "134122.281000", "134122.281000", "134122.281000", "134122.296000", "134122.296000", "134122.296000", "134142.250000", "134142.265000", "134142.265000", "134142.265000", "134142.265000", "134142.265000", "134142.265000", "134142.265000", "134142.281000", "134142.281000", "134142.281000", "134142.281000", "134142.281000", "134142.281000", "134142.281000", "134142.296000", "134142.296000", "134142.296000", "134142.296000", "134142.296000", "134202.250000", "134202.250000", "134202.265000", "134202.265000", "134202.265000", "134202.265000", "134202.265000", "134202.265000", "134202.265000", "134202.265000", "134202.281000", "134202.281000", "134202.281000", "134202.281000", "134202.281000", "134202.281000", "134202.281000", "134202.296000", "134202.296000", "134202.296000", "134222.250000", "134222.250000", "134222.265000", "134222.265000", "134222.265000", "134222.265000", "134222.265000", "134222.281000", "134222.281000", "134222.281000", "134222.281000", "134222.281000", "134222.281000", "134222.281000", "134222.296000", "134222.296000", "134222.296000", "134222.296000", "134222.296000", "134222.296000", "134242.250000", "134242.250000", "134242.265000", "134242.265000", "134242.265000", "134242.265000", "134242.265000", "134242.265000", "134242.281000", "134242.281000", "134242.281000", "134242.281000", "134242.281000", "134242.281000", "134242.281000", "134242.296000", "134242.296000", "134242.296000", "134242.296000", "134242.296000", "134302.250000", "134302.250000", "134302.265000", "134302.265000", "134302.265000", "134302.265000", "134302.265000", "134302.265000", "134302.265000", "134302.281000", "134302.281000", "134302.281000", "134302.281000", "134302.281000", "134302.281000", "134302.281000", "134302.296000", "134302.296000", "134302.296000", "134302.296000", "134322.250000", "134322.250000", "134322.265000", "134322.265000", "134322.265000", "134322.265000", "134322.265000", "134322.281000", "134322.281000", "134322.281000", "134322.281000", "134322.281000", "134322.281000", "134322.281000", "134322.296000", "134322.296000", "134322.296000", "134322.296000", "134322.296000", "134322.296000", "134342.250000", "134342.250000", "134342.265000", "134342.265000", "134342.265000", "134342.265000", "134342.265000", "134342.281000", "134342.281000", "134342.281000", "134342.281000", "134342.281000", "134342.281000", "134342.281000", "134342.296000", "134342.296000", "134342.296000", "134342.296000", "134342.296000", "134342.296000", "134402.250000", "134402.250000", "134402.265000", "134402.265000", "134402.265000", "134402.265000", "134402.265000", "134402.265000", "134402.265000", "134402.265000", "134402.281000", "134402.281000", "134402.281000", "134402.281000", "134402.281000", "134402.281000", "134402.281000", "134402.296000", "134402.296000", "134402.296000", "134422.250000", "134422.250000", "134422.265000", "134422.265000", "134422.265000", "134422.265000", "134422.265000", "134422.265000", "134422.265000", "134422.265000", "134422.281000", "134422.281000", "134422.281000", "134422.281000", "134422.281000", "134422.281000", "134422.281000", "134422.296000", "134422.296000", "134422.296000", "134430.906000", "134430.906000", "134430.906000", "134430.906000"],
      "InstanceNumber": [1, 2, 3, 4, 5, 6, 7, 8, 9, 10, 11, 12, 13, 14, 15, 16, 17, 18, 19, 20, 21, 22, 23, 24, 25, 26, 27, 28, 29, 30, 31, 32, 33, 34, 35, 36, 37, 38, 39, 40, 41, 42, 43, 44, 45, 46, 47, 48, 49, 50, 51, 52, 53, 54, 55, 56, 57, 58, 59, 60, 61, 62, 63, 64, 65, 66, 67, 68, 69, 70, 71, 72, 73, 74, 75, 76, 77, 78, 79, 80, 81, 82, 83, 84, 85, 86, 87, 88, 89, 90, 91, 92, 93, 94, 95, 96, 97, 98, 99, 100, 101, 102, 103, 104, 105, 106, 107, 108, 109, 110, 111, 112, 113, 114, 115, 116, 117, 118, 119, 120, 121, 122, 123, 124, 125, 126, 127, 128, 129, 130, 131, 132, 133, 134, 135, 136, 137, 138, 139, 140, 141, 142, 143, 144, 145, 146, 147, 148, 149, 150, 151, 152, 153, 154, 155, 156, 157, 158, 159, 160, 161, 162, 163, 164, 165, 166, 167, 168, 169, 170, 171, 172, 173, 174, 175, 176, 177, 178, 179, 180, 181, 182, 183, 184, 185, 186, 187, 188, 189, 190, 191, 192, 193, 194, 195, 196, 197, 198, 199, 200, 201, 202, 203, 204, 205, 206, 207, 208, 209, 210, 211, 212, 213, 214, 215, 216, 217, 218, 219, 220, 221, 222, 223, 224, 225, 226, 227, 228, 229, 230, 231, 232, 233, 234, 235, 236, 237, 238, 239, 240, 241, 242, 243, 244, 245, 246, 247, 248, 249, 250, 251, 252, 253, 254, 255, 256, 257, 258, 259, 260, 261, 262, 263, 264, 265, 266, 267, 268, 269, 270, 271, 272, 273, 274, 275, 276, 277, 278, 279, 280, 281, 282, 283, 284, 285, 286, 287, 288, 289, 290, 291, 292, 293, 294, 295, 296, 297, 298, 299, 300, 301, 302, 303, 304, 305, 306, 307, 308, 309, 310, 311, 312, 313, 314, 315, 316, 317, 318, 319, 320, 321, 322, 323, 324, 325, 326, 327, 328, 329, 330],
      "LargestImagePixelValue": [2660, 2595, 2507, 2482, 2386, 2447, 2408, 2438, 2409, 2453, 2393, 2481, 2491, 2487, 2482, 2416, 2537, 2409, 2491, 2427, 2459, 2563, 2541, 2411, 2449, 2409, 2485, 2441, 2451, 2481, 2495, 2339, 2435, 2446, 2416, 2383, 2440, 2410, 2404, 2401, 2414, 2475, 2437, 2462, 2564, 2536, 2383, 2390, 2384, 2430, 2487, 2453, 2409, 2430, 2457, 2428, 2433, 2498, 2460, 2494, 2470, 2502, 2463, 2471, 2449, 2532, 2508, 2505, 2451, 2424, 2480, 2483, 2491, 2503, 2548, 2496, 2535, 2529, 2541, 2535, 2548, 2544, 2507, 2493, 2516, 2430, 2513, 2446, 2538, 2498, 2483, 2463, 2491, 2478, 2569, 2533, 2542, 2613, 2508, 2576, 2564, 2549, 2530, 2589, 2518, 2521, 2573, 2552, 2573, 2523, 2522, 2569, 2628, 2541, 2583, 2514, 2545, 2484, 2561, 2538, 2557, 2462, 2597, 2549, 2500, 2606, 2622, 2505, 2529, 2522, 2538, 2526, 2516, 2530, 2584, 2516, 2576, 2532, 2517, 2522, 2541, 2488, 2555, 2555, 2539, 2560, 2560, 2553, 2602, 2547, 2555, 2550, 2519, 2533, 2528, 2518, 2550, 2590, 2512, 2537, 2474, 2540, 2558, 2594, 2506, 2518, 2555, 2546, 2526, 2541, 2505, 2474, 2527, 2511, 2529, 2535, 2536, 2471, 2611, 2517, 2489, 2516, 2532, 2515, 2533, 2489, 2530, 2580, 2504, 2521, 2500, 2599, 2587, 2538, 2563, 2521, 2540, 2538, 2496, 2530, 2551, 2573, 2512, 2522, 2502, 2546, 2472, 2481, 2499, 2523, 2513, 2475, 2646, 2591, 2725, 2488, 2651, 2625, 2497, 2589, 2581, 2591, 2548, 2544, 2609, 2519, 2561, 2604, 2508, 2592, 2611, 2592, 2622, 2490, 2659, 2518, 2568, 2608, 2655, 2650, 2621, 2546, 2639, 2554, 2685, 2565, 2639, 2677, 2587, 2700, 2608, 2638, 2640, 2643, 2566, 2606, 2658, 2642, 2590, 2564, 2630, 2759, 2681, 2640, 2586, 2677, 2676, 2610, 2668, 2575, 2603, 2604, 2664, 2631, 2534, 2638, 2587, 2636, 2655, 2624, 2677, 2690, 2586, 2668, 2574, 2650, 2587, 2618, 2639, 2703, 2557, 2590, 2581, 2653, 2644, 2533, 2649, 2544, 2690, 2607, 2616, 2618, 2726, 2656, 2654, 2646, 2677, 2683, 2660, 2738, 2682, 2703, 2666, 2709, 2617, 2743, 2693, 2629, 2629, 2665, 2661, 2691, 2724, 2598, 2659, 2648, 2732, 2689, 2666, 2698],
      "WindowCenter": [430.0, 429.0, 429.0, 429.0, 427.0, 427.0, 425.0, 424.0, 422.0, 422.0, 422.0, 421.0, 421.0, 421.0, 421.0, 421.0, 422.0, 419.0, 421.0, 422.0, 421.0, 421.0, 423.0, 424.0, 425.0, 425.0, 425.0, 425.0, 425.0, 425.0, 425.0, 424.0, 427.0, 427.0, 427.0, 426.0, 426.0, 425.0, 425.0, 424.0, 423.0, 421.0, 420.0, 420.0, 419.0, 419.0, 419.0, 420.0, 421.0, 421.0, 420.0, 420.0, 421.0, 420.0, 422.0, 422.0, 423.0, 423.0, 423.0, 423.0, 423.0, 423.0, 426.0, 426.0, 427.0, 428.0, 429.0, 428.0, 426.0, 424.0, 424.0, 425.0, 425.0, 426.0, 427.0, 426.0, 425.0, 426.0, 426.0, 425.0, 425.0, 425.0, 425.0, 427.0, 429.0, 428.0, 430.0, 429.0, 430.0, 429.0, 428.0, 427.0, 425.0, 422.0, 421.0, 421.0, 422.0, 423.0, 423.0, 426.0, 426.0, 426.0, 426.0, 428.0, 427.0, 428.0, 428.0, 427.0, 427.0, 428.0, 429.0, 429.0, 429.0, 430.0, 430.0, 431.0, 431.0, 433.0, 434.0, 435.0, 435.0, 432.0, 432.0, 431.0, 432.0, 432.0, 432.0, 431.0, 431.0, 430.0, 429.0, 428.0, 428.0, 428.0, 429.0, 428.0, 429.0, 428.0, 428.0, 429.0, 429.0, 429.0, 429.0, 429.0, 430.0, 429.0, 429.0, 429.0, 429.0, 429.0, 429.0, 427.0, 427.0, 428.0, 428.0, 430.0, 430.0, 432.0, 432.0, 432.0, 431.0, 430.0, 430.0, 430.0, 430.0, 430.0, 430.0, 430.0, 430.0, 431.0, 431.0, 431.0, 432.0, 431.0, 432.0, 432.0, 432.0, 432.0, 433.0, 433.0, 433.0, 433.0, 433.0, 433.0, 434.0, 432.0, 433.0, 431.0, 430.0, 430.0, 431.0, 432.0, 432.0, 432.0, 432.0, 432.0, 433.0, 433.0, 432.0, 431.0, 432.0, 431.0, 431.0, 433.0, 433.0, 433.0, 432.0, 432.0, 432.0, 432.0, 432.0, 432.0, 433.0, 433.0, 433.0, 431.0, 432.0, 431.0, 430.0, 430.0, 430.0, 430.0, 430.0, 430.0, 431.0, 432.0, 433.0, 433.0, 432.0, 433.0, 434.0, 434.0, 433.0, 432.0, 435.0, 432.0, 431.0, 431.0, 432.0, 434.0, 434.0, 433.0, 435.0, 434.0, 434.0, 433.0, 432.0, 431.0, 431.0, 431.0, 432.0, 433.0, 433.0, 433.0, 432.0, 431.0, 431.0, 430.0, 430.0, 432.0, 433.0, 435.0, 434.0, 434.0, 433.0, 432.0, 432.0, 431.0, 430.0, 430.0, 432.0, 431.0, 432.0, 432.0, 431.0, 432.0, 432.0, 432.0, 432.0, 431.0, 432.0, 432.0, 431.0, 432.0, 431.0, 433.0, 433.0, 432.0, 432.0, 433.0, 433.0, 434.0, 433.0, 433.0, 434.0, 434.0, 434.0, 433.0, 434.0, 433.0, 433.0, 433.0, 434.0, 433.0, 435.0, 434.0, 434.0, 434.0, 433.0, 434.0, 434.0, 434.0, 434.0, 436.0, 437.0, 438.0, 437.0, 436.0, 435.0, 436.0, 436.0, 437.0, 436.0, 435.0, 436.0, 435.0, 436.0, 435.0, 434.0, 434.0],
