{
  "AcquisitionMatrixPE": 104,
  "AcquisitionNumber": 1,
  "AcquisitionTime": "13:58:57.492500",
  "BandwidthPerPixelPhaseEncode": 43.054,
  "BaseResolution": 104,
  "CoilString": "C:E1_2",
  "ConversionSoftware": "dcm2niix",
  "ConversionSoftwareVersion": "v1.0.20191031",
  "DerivedVendorReportedEchoSpacing": 0.000669999,
  "DeviceSerialNumber": "18932",
  "DwellTime": 2.8e-06,
  "EchoTime": 0.02,
  "EffectiveEchoSpacing": 0.000223333,
  "FlipAngle": 30,
  "ImageComments": "Unaliased_MB2_PE2",
  "ImageOrientationPatientDICOM": [1, 0, 0, 0, 0.988756, -0.149535],
  "ImageType": [
    "ORIGINAL",
    "PRIMARY",
    "M",
    "MB",
    "ND",
    "MOSAIC"
],
  "ImagingFrequency": 297.229,
  "InPlanePhaseEncodingDirectionDICOM": "COL",
  "InstitutionAddress": "Richmond_Street_North_1151_London_409EF2_Ontario_CA_N6A_5B7",
  "InstitutionName": "Robarts_Reserch_Institute",
  "InstitutionalDepartmentName": "Department",
  "MRAcquisitionType": "2D",
  "MagneticFieldStrength": 6.98,
  "Manufacturer": "Siemens",
  "ManufacturersModelName": "Investigational_Device_7T",
  "Modality": "MR",
  "MultibandAccelerationFactor": 2,
  "ParallelReductionFactorInPlane": 3,
  "PartialFourier": 0.875,
  "PatientPosition": "HFS",
  "PercentPhaseFOV": 100,
  "PhaseEncodingDirection": "j-",
  "PhaseEncodingSteps": 91,
  "PhaseResolution": 1,
  "PixelBandwidth": 1717,
  "ProcedureStepDescription": "Diedrichsen_SeqRep4",
  "ProtocolName": "mbep2d_bold_mb2_p3_AP_2iso",
  "PulseSequenceDetails": "%CustomerSeq%_cmrr_mbep2d_bold",
  "ReceiveCoilName": "CFMM_8Tx32Rx",
  "ReconMatrixPE": 104,
  "RefLinesPE": 36,
  "RepetitionTime": 1,
  "ScanOptions": "PFP_FS",
  "ScanningSequence": "EP",
  "SequenceName": "epfid2d1_104",
  "SequenceVariant": "SK_SS",
  "SeriesDescription": "mbep2d_bold_mb2_p3_AP_2iso",
  "SeriesNumber": 35,
  "ShimSetting": [-16, 1963, 280, 451, 67, -195, -266, -123],
  "SliceThickness": 2,
  "SliceTiming": [0, 0.2275, 0.455, 0.685, 0.9125, 0.1375, 0.365, 0.5925, 0.82, 0.045, 0.2725, 0.5025, 0.73, 0.9575, 0.1825, 0.41, 0.6375, 0.8675, 0.09, 0.32, 0.5475, 0.775, 0, 0.2275, 0.455, 0.685, 0.9125, 0.1375, 0.365, 0.5925, 0.82, 0.045, 0.2725, 0.5025, 0.73, 0.9575, 0.1825, 0.41, 0.6375, 0.8675, 0.09, 0.32, 0.5475, 0.775],
  "SoftwareVersions": "syngo_MR_B17",
  "SpacingBetweenSlices": 2,
  "StationName": "MASTER",
  "TaskName": "dsp",
  "TotalReadoutTime": 0.0230033,
  "TxRefAmp": 120,
  "dcmmeta_affine": [
    [-2.0, 0.0, 0.0, 107.6319580078125],
    [0.0, 1.9775127172470093, -0.29907068610191345, -106.04757690429688],
    [0.0, 0.29907068610191345, 1.9775127172470093, -46.19629669189453],
    [0.0, 0.0, 0.0, 1.0]
],
  "dcmmeta_reorient_transform": [
    [0.0, -1.0, 0.0, 103.0],
    [1.0, 0.0, 0.0, 0.0],
    [0.0, 0.0, 1.0, 0.0],
    [0.0, 0.0, 0.0, 1.0]
],
  "dcmmeta_shape": [104, 104, 44, 330],
  "dcmmeta_slice_dim": 2,
  "dcmmeta_version": 0.6,
  "global": {
    "const": {
      "AcquisitionMatrix": [104, 0, 0, 104],
      "AngioFlag": "N",
      "BitsAllocated": 16,
      "BitsStored": 12,
      "Columns": 728,
      "EchoNumbers": 1,
      "EchoTime": 20.0,
      "EchoTrainLength": 1,
      "FlipAngle": 30.0,
      "HighBit": 11,
      "ImageOrientationPatient": [1.0, 0.0, 0.0, 0.0, 0.98875638160626, -0.1495353397458],
      "ImagePositionPatient": [-731.63196134567, -714.62022165698, 77.918034173961],
      "ImageType": [
        "ORIGINAL",
        "PRIMARY",
        "M",
        "MB",
        "ND",
        "MOSAIC"
],
      "ImagedNucleus": "1H",
      "ImagingFrequency": 297.229262,
      "InPlanePhaseEncodingDirection": "COL",
      "MRAcquisitionType": "2D",
      "MagneticFieldStrength": 6.98,
      "Manufacturer": "SIEMENS",
      "ManufacturerModelName": "Investigational_Device_7T",
      "Modality": "MR",
      "NumberOfAverages": 1.0,
      "NumberOfPhaseEncodingSteps": 91,
      "PercentPhaseFieldOfView": 100.0,
      "PercentSampling": 100.0,
      "PerformedProcedureStepStartTime": "123916.500000",
      "PhotometricInterpretation": "MONOCHROME2",
      "PixelBandwidth": 1717.0,
      "PixelRepresentation": 0,
      "PixelSpacing": [2.0, 2.0],
      "ProtocolName": "mbep2d_bold_mb2_p3_AP 2iso",
      "RepetitionTime": 1000.0,
      "Rows": 728,
      "SAR": 0.0,
      "SamplesPerPixel": 1,
      "ScanOptions": [
        "PFP",
        "FS"
],
      "ScanningSequence": "EP",
      "SequenceName": "epfid2d1_104",
      "SequenceVariant": [
        "SK",
        "SS"
],
      "SeriesDescription": "mbep2d_bold_mb2_p3_AP 2iso",
      "SeriesNumber": 35,
      "SeriesTime": "135922.296000",
      "SliceLocation": -29.819024103006,
      "SliceThickness": 2.0,
      "SmallestImagePixelValue": 0,
      "SoftwareVersions": "syngo MR B17",
      "SpacingBetweenSlices": 1.9999999990406,
      "SpecificCharacterSet": "ISO_IR 100",
      "StudyID": "1",
      "StudyTime": "123916.437000",
      "TransmitCoilName": "CFMM_8Tx32Rx",
      "VariableFlipAngleFlag": "N",
      "WindowCenterWidthExplanation": "Algo1",
      "dBdt": 0.0},
    "slices": {}
  },
  "time": {
    "samples": {
      "AcquisitionNumber": [1, 2, 3, 4, 5, 6, 7, 8, 9, 10, 11, 12, 13, 14, 15, 16, 17, 18, 19, 20, 21, 22, 23, 24, 25, 26, 27, 28, 29, 30, 31, 32, 33, 34, 35, 36, 37, 38, 39, 40, 41, 42, 43, 44, 45, 46, 47, 48, 49, 50, 51, 52, 53, 54, 55, 56, 57, 58, 59, 60, 61, 62, 63, 64, 65, 66, 67, 68, 69, 70, 71, 72, 73, 74, 75, 76, 77, 78, 79, 80, 81, 82, 83, 84, 85, 86, 87, 88, 89, 90, 91, 92, 93, 94, 95, 96, 97, 98, 99, 100, 101, 102, 103, 104, 105, 106, 107, 108, 109, 110, 111, 112, 113, 114, 115, 116, 117, 118, 119, 120, 121, 122, 123, 124, 125, 126, 127, 128, 129, 130, 131, 132, 133, 134, 135, 136, 137, 138, 139, 140, 141, 142, 143, 144, 145, 146, 147, 148, 149, 150, 151, 152, 153, 154, 155, 156, 157, 158, 159, 160, 161, 162, 163, 164, 165, 166, 167, 168, 169, 170, 171, 172, 173, 174, 175, 176, 177, 178, 179, 180, 181, 182, 183, 184, 185, 186, 187, 188, 189, 190, 191, 192, 193, 194, 195, 196, 197, 198, 199, 200, 201, 202, 203, 204, 205, 206, 207, 208, 209, 210, 211, 212, 213, 214, 215, 216, 217, 218, 219, 220, 221, 222, 223, 224, 225, 226, 227, 228, 229, 230, 231, 232, 233, 234, 235, 236, 237, 238, 239, 240, 241, 242, 243, 244, 245, 246, 247, 248, 249, 250, 251, 252, 253, 254, 255, 256, 257, 258, 259, 260, 261, 262, 263, 264, 265, 266, 267, 268, 269, 270, 271, 272, 273, 274, 275, 276, 277, 278, 279, 280, 281, 282, 283, 284, 285, 286, 287, 288, 289, 290, 291, 292, 293, 294, 295, 296, 297, 298, 299, 300, 301, 302, 303, 304, 305, 306, 307, 308, 309, 310, 311, 312, 313, 314, 315, 316, 317, 318, 319, 320, 321, 322, 323, 324, 325, 326, 327, 328, 329, 330],
      "AcquisitionTime": ["135857.492500", "135858.495000", "135859.500000", "135900.505000", "135901.507500", "135902.512500", "135903.517500", "135904.520000", "135905.525000", "135906.527500", "135907.532500", "135908.537500", "135909.540000", "135910.545000", "135911.547500", "135912.552500", "135913.557500", "135914.560000", "135915.565000", "135916.567500", "135917.572500", "135918.577500", "135919.580000", "135920.585000", "135921.587500", "135922.592500", "135923.597500", "135924.600000", "135925.605000", "135926.607500", "135927.612500", "135928.617500", "135929.620000", "135930.625000", "135931.630000", "135932.632500", "135933.637500", "135934.640000", "135935.645000", "135936.650000", "135937.652500", "135938.657500", "135939.660000", "135940.665000", "135941.670000", "135942.672500", "135943.677500", "135944.680000", "135945.685000", "135946.690000", "135947.692500", "135948.697500", "135949.700000", "135950.705000", "135951.710000", "135952.712500", "135953.717500", "135954.720000", "135955.725000", "135956.730000", "135957.732500", "135958.737500", "135959.740000", "140000.745000", "140001.750000", "140002.752500", "140003.757500", "140004.762500", "140005.765000", "140006.770000", "140007.772500", "140008.777500", "140009.782500", "140010.785000", "140011.790000", "140012.792500", "140013.797500", "140014.802500", "140015.805000", "140016.810000", "140017.812500", "140018.817500", "140019.822500", "140020.825000", "140021.830000", "140022.832500", "140023.837500", "140024.842500", "140025.845000", "140026.850000", "140027.852500", "140028.857500", "140029.862500", "140030.865000", "140031.870000", "140032.872500", "140033.877500", "140034.882500", "140035.885000", "140036.890000", "140037.895000", "140038.897500", "140039.902500", "140040.905000", "140041.910000", "140042.915000", "140043.917500", "140044.922500", "140045.925000", "140046.930000", "140047.935000", "140048.937500", "140049.942500", "140050.945000", "140051.950000", "140052.955000", "140053.957500", "140054.962500", "140055.965000", "140056.970000", "140057.975000", "140058.977500", "140059.982500", "140100.985000", "140101.990000", "140102.995000", "140103.997500", "140105.002500", "140106.007500", "140107.010000", "140108.015000", "140109.017500", "140110.022500", "140111.027500", "140112.030000", "140113.035000", "140114.037500", "140115.042500", "140116.047500", "140117.050000", "140118.055000", "140119.057500", "140120.062500", "140121.067500", "140122.070000", "140123.075000", "140124.077500", "140125.082500", "140126.087500", "140127.090000", "140128.095000", "140129.097500", "140130.102500", "140131.107500", "140132.110000", "140133.115000", "140134.117500", "140135.122500", "140136.127500", "140137.130000", "140138.135000", "140139.140000", "140140.142500", "140141.147500", "140142.150000", "140143.155000", "140144.160000", "140145.162500", "140146.167500", "140147.170000", "140148.175000", "140149.180000", "140150.182500", "140151.187500", "140152.190000", "140153.195000", "140154.200000", "140155.202500", "140156.207500", "140157.210000", "140158.215000", "140159.220000", "140200.222500", "140201.227500", "140202.230000", "140203.235000", "140204.240000", "140205.242500", "140206.247500", "140207.252500", "140208.255000", "140209.260000", "140210.262500", "140211.267500", "140212.272500", "140213.275000", "140214.280000", "140215.282500", "140216.287500", "140217.292500", "140218.295000", "140219.300000", "140220.302500", "140221.307500", "140222.312500", "140223.315000", "140224.320000", "140225.322500", "140226.327500", "140227.332500", "140228.335000", "140229.340000", "140230.342500", "140231.347500", "140232.352500", "140233.355000", "140234.360000", "140235.362500", "140236.367500", "140237.372500", "140238.375000", "140239.380000", "140240.385000", "140241.387500", "140242.392500", "140243.395000", "140244.400000", "140245.405000", "140246.407500", "140247.412500", "140248.415000", "140249.420000", "140250.425000", "140251.427500", "140252.432500", "140253.435000", "140254.440000", "140255.445000", "140256.447500", "140257.452500", "140258.455000", "140259.460000", "140300.465000", "140301.467500", "140302.472500", "140303.475000", "140304.480000", "140305.485000", "140306.487500", "140307.492500", "140308.495000", "140309.500000", "140310.505000", "140311.507500", "140312.512500", "140313.517500", "140314.520000", "140315.525000", "140316.527500", "140317.532500", "140318.537500", "140319.540000", "140320.545000", "140321.547500", "140322.552500", "140323.557500", "140324.560000", "140325.565000", "140326.567500", "140327.572500", "140328.577500", "140329.580000", "140330.585000", "140331.587500", "140332.592500", "140333.597500", "140334.600000", "140335.605000", "140336.607500", "140337.612500", "140338.617500", "140339.620000", "140340.625000", "140341.630000", "140342.632500", "140343.637500", "140344.640000", "140345.645000", "140346.650000", "140347.652500", "140348.657500", "140349.660000", "140350.665000", "140351.670000", "140352.672500", "140353.677500", "140354.680000", "140355.685000", "140356.690000", "140357.692500", "140358.697500", "140359.700000", "140400.705000", "140401.710000", "140402.712500", "140403.717500", "140404.720000", "140405.725000", "140406.730000", "140407.732500", "140408.737500", "140409.740000", "140410.745000", "140411.750000", "140412.752500", "140413.757500", "140414.762500", "140415.765000", "140416.770000", "140417.772500", "140418.777500", "140419.782500", "140420.785000", "140421.790000", "140422.792500", "140423.797500", "140424.802500", "140425.805000", "140426.810000", "140427.812500"],
      "ContentTime": ["135922.296000", "135922.296000", "135922.296000", "135922.296000", "135922.312000", "135922.312000", "135922.312000", "135922.312000", "135922.328000", "135922.328000", "135922.328000", "135922.328000", "135922.328000", "135922.328000", "135922.343000", "135922.343000", "135922.343000", "135922.343000", "135922.343000", "135922.343000", "135922.343000", "135922.359000", "135922.359000", "135942.250000", "135942.250000", "135942.265000", "135942.265000", "135942.265000", "135942.265000", "135942.265000", "135942.265000", "135942.265000", "135942.281000", "135942.281000", "135942.281000", "135942.281000", "135942.281000", "135942.281000", "135942.281000", "135942.281000", "135942.296000", "135942.296000", "135942.296000", "140002.250000", "140002.250000", "140002.250000", "140002.265000", "140002.265000", "140002.265000", "140002.265000", "140002.265000", "140002.265000", "140002.281000", "140002.281000", "140002.281000", "140002.281000", "140002.281000", "140002.281000", "140002.281000", "140002.296000", "140002.296000", "140002.296000", "140002.296000", "140022.250000", "140022.250000", "140022.265000", "140022.265000", "140022.265000", "140022.265000", "140022.281000", "140022.281000", "140022.281000", "140022.281000", "140022.281000", "140022.281000", "140022.281000", "140022.281000", "140022.296000", "140022.296000", "140022.296000", "140022.296000", "140022.296000", "140022.296000", "140042.250000", "140042.250000", "140042.265000", "140042.265000", "140042.265000", "140042.265000", "140042.265000", "140042.265000", "140042.281000", "140042.281000", "140042.281000", "140042.281000", "140042.281000", "140042.281000", "140042.281000", "140042.296000", "140042.296000", "140042.296000", "140042.296000", "140042.296000", "140102.250000", "140102.250000", "140102.265000", "140102.265000", "140102.265000", "140102.265000", "140102.265000", "140102.265000", "140102.265000", "140102.265000", "140102.281000", "140102.281000", "140102.281000", "140102.281000", "140102.281000", "140102.281000", "140102.281000", "140102.296000", "140102.296000", "140102.296000", "140122.250000", "140122.250000", "140122.265000", "140122.265000", "140122.265000", "140122.265000", "140122.265000", "140122.265000", "140122.281000", "140122.281000", "140122.281000", "140122.281000", "140122.281000", "140122.281000", "140122.281000", "140122.296000", "140122.296000", "140122.296000", "140122.296000", "140122.296000", "140142.250000", "140142.250000", "140142.265000", "140142.265000", "140142.265000", "140142.281000", "140142.281000", "140142.281000", "140142.281000", "140142.296000", "140142.296000", "140142.296000", "140142.296000", "140142.296000", "140142.296000", "140142.312000", "140142.312000", "140142.312000", "140142.312000", "140142.312000", "140202.250000", "140202.250000", "140202.265000", "140202.265000", "140202.281000", "140202.281000", "140202.281000", "140202.281000", "140202.281000", "140202.281000", "140202.296000", "140202.296000", "140202.296000", "140202.296000", "140202.296000", "140202.296000", "140202.296000", "140202.312000", "140202.312000", "140202.312000", "140222.250000", "140222.250000", "140222.265000", "140222.265000", "140222.265000", "140222.265000", "140222.265000", "140222.281000", "140222.281000", "140222.281000", "140222.281000", "140222.281000", "140222.281000", "140222.281000", "140222.296000", "140222.296000", "140222.296000", "140222.296000", "140222.296000", "140222.296000", "140242.250000", "140242.250000", "140242.265000", "140242.265000", "140242.265000", "140242.265000", "140242.265000", "140242.265000", "140242.265000", "140242.265000", "140242.281000", "140242.281000", "140242.281000", "140242.281000", "140242.281000", "140242.281000", "140242.281000", "140242.296000", "140242.296000", "140242.296000", "140302.250000", "140302.250000", "140302.265000", "140302.265000", "140302.265000", "140302.265000", "140302.265000", "140302.281000", "140302.281000", "140302.281000", "140302.281000", "140302.281000", "140302.281000", "140302.281000", "140302.296000", "140302.296000", "140302.296000", "140302.296000", "140302.296000", "140302.296000", "140322.250000", "140322.250000", "140322.265000", "140322.265000", "140322.265000", "140322.265000", "140322.265000", "140322.265000", "140322.281000", "140322.281000", "140322.281000", "140322.281000", "140322.281000", "140322.281000", "140322.281000", "140322.281000", "140322.296000", "140322.296000", "140322.296000", "140322.296000", "140342.250000", "140342.250000", "140342.265000", "140342.265000", "140342.265000", "140342.265000", "140342.265000", "140342.265000", "140342.265000", "140342.281000", "140342.281000", "140342.281000", "140342.281000", "140342.281000", "140342.296000", "140342.296000", "140342.296000", "140342.296000", "140342.296000", "140342.296000", "140402.250000", "140402.250000", "140402.265000", "140402.265000", "140402.265000", "140402.265000", "140402.265000", "140402.265000", "140402.265000", "140402.265000", "140402.281000", "140402.281000", "140402.281000", "140402.281000", "140402.281000", "140402.281000", "140402.281000", "140402.296000", "140402.296000", "140402.296000", "140422.250000", "140422.250000", "140422.265000", "140422.265000", "140422.265000", "140422.265000", "140422.265000", "140422.265000", "140422.281000", "140422.281000", "140422.281000", "140422.281000", "140422.281000", "140422.281000", "140422.281000", "140422.281000", "140422.296000", "140422.296000", "140422.296000", "140422.296000", "140433.687000", "140433.687000", "140433.687000", "140433.687000", "140433.687000", "140433.687000", "140433.703000"],
      "InstanceCreationTime": ["135922.296000", "135922.296000", "135922.296000", "135922.296000", "135922.312000", "135922.312000", "135922.312000", "135922.312000", "135922.328000", "135922.328000", "135922.328000", "135922.328000", "135922.328000", "135922.328000", "135922.343000", "135922.343000", "135922.343000", "135922.343000", "135922.343000", "135922.343000", "135922.343000", "135922.359000", "135922.359000", "135942.250000", "135942.250000", "135942.265000", "135942.265000", "135942.265000", "135942.265000", "135942.265000", "135942.265000", "135942.265000", "135942.281000", "135942.281000", "135942.281000", "135942.281000", "135942.281000", "135942.281000", "135942.281000", "135942.281000", "135942.296000", "135942.296000", "135942.296000", "140002.250000", "140002.250000", "140002.250000", "140002.265000", "140002.265000", "140002.265000", "140002.265000", "140002.265000", "140002.265000", "140002.281000", "140002.281000", "140002.281000", "140002.281000", "140002.281000", "140002.281000", "140002.281000", "140002.296000", "140002.296000", "140002.296000", "140002.296000", "140022.250000", "140022.250000", "140022.265000", "140022.265000", "140022.265000", "140022.265000", "140022.281000", "140022.281000", "140022.281000", "140022.281000", "140022.281000", "140022.281000", "140022.281000", "140022.281000", "140022.296000", "140022.296000", "140022.296000", "140022.296000", "140022.296000", "140022.296000", "140042.250000", "140042.250000", "140042.265000", "140042.265000", "140042.265000", "140042.265000", "140042.265000", "140042.265000", "140042.281000", "140042.281000", "140042.281000", "140042.281000", "140042.281000", "140042.281000", "140042.281000", "140042.296000", "140042.296000", "140042.296000", "140042.296000", "140042.296000", "140102.250000", "140102.250000", "140102.265000", "140102.265000", "140102.265000", "140102.265000", "140102.265000", "140102.265000", "140102.265000", "140102.265000", "140102.281000", "140102.281000", "140102.281000", "140102.281000", "140102.281000", "140102.281000", "140102.281000", "140102.296000", "140102.296000", "140102.296000", "140122.250000", "140122.250000", "140122.265000", "140122.265000", "140122.265000", "140122.265000", "140122.265000", "140122.265000", "140122.281000", "140122.281000", "140122.281000", "140122.281000", "140122.281000", "140122.281000", "140122.281000", "140122.296000", "140122.296000", "140122.296000", "140122.296000", "140122.296000", "140142.250000", "140142.250000", "140142.265000", "140142.265000", "140142.265000", "140142.281000", "140142.281000", "140142.281000", "140142.281000", "140142.296000", "140142.296000", "140142.296000", "140142.296000", "140142.296000", "140142.296000", "140142.312000", "140142.312000", "140142.312000", "140142.312000", "140142.312000", "140202.250000", "140202.250000", "140202.265000", "140202.265000", "140202.281000", "140202.281000", "140202.281000", "140202.281000", "140202.281000", "140202.281000", "140202.296000", "140202.296000", "140202.296000", "140202.296000", "140202.296000", "140202.296000", "140202.296000", "140202.312000", "140202.312000", "140202.312000", "140222.250000", "140222.250000", "140222.265000", "140222.265000", "140222.265000", "140222.265000", "140222.265000", "140222.281000", "140222.281000", "140222.281000", "140222.281000", "140222.281000", "140222.281000", "140222.281000", "140222.296000", "140222.296000", "140222.296000", "140222.296000", "140222.296000", "140222.296000", "140242.250000", "140242.250000", "140242.265000", "140242.265000", "140242.265000", "140242.265000", "140242.265000", "140242.265000", "140242.265000", "140242.265000", "140242.281000", "140242.281000", "140242.281000", "140242.281000", "140242.281000", "140242.281000", "140242.281000", "140242.296000", "140242.296000", "140242.296000", "140302.250000", "140302.250000", "140302.265000", "140302.265000", "140302.265000", "140302.265000", "140302.265000", "140302.281000", "140302.281000", "140302.281000", "140302.281000", "140302.281000", "140302.281000", "140302.281000", "140302.296000", "140302.296000", "140302.296000", "140302.296000", "140302.296000", "140302.296000", "140322.250000", "140322.250000", "140322.265000", "140322.265000", "140322.265000", "140322.265000", "140322.265000", "140322.265000", "140322.281000", "140322.281000", "140322.281000", "140322.281000", "140322.281000", "140322.281000", "140322.281000", "140322.281000", "140322.296000", "140322.296000", "140322.296000", "140322.296000", "140342.250000", "140342.250000", "140342.265000", "140342.265000", "140342.265000", "140342.265000", "140342.265000", "140342.265000", "140342.265000", "140342.281000", "140342.281000", "140342.281000", "140342.281000", "140342.281000", "140342.296000", "140342.296000", "140342.296000", "140342.296000", "140342.296000", "140342.296000", "140402.250000", "140402.250000", "140402.265000", "140402.265000", "140402.265000", "140402.265000", "140402.265000", "140402.265000", "140402.265000", "140402.265000", "140402.281000", "140402.281000", "140402.281000", "140402.281000", "140402.281000", "140402.281000", "140402.281000", "140402.296000", "140402.296000", "140402.296000", "140422.250000", "140422.250000", "140422.265000", "140422.265000", "140422.265000", "140422.265000", "140422.265000", "140422.265000", "140422.281000", "140422.281000", "140422.281000", "140422.281000", "140422.281000", "140422.281000", "140422.281000", "140422.281000", "140422.296000", "140422.296000", "140422.296000", "140422.296000", "140433.687000", "140433.687000", "140433.687000", "140433.687000", "140433.687000", "140433.687000", "140433.703000"],
      "InstanceNumber": [1, 2, 3, 4, 5, 6, 7, 8, 9, 10, 11, 12, 13, 14, 15, 16, 17, 18, 19, 20, 21, 22, 23, 24, 25, 26, 27, 28, 29, 30, 31, 32, 33, 34, 35, 36, 37, 38, 39, 40, 41, 42, 43, 44, 45, 46, 47, 48, 49, 50, 51, 52, 53, 54, 55, 56, 57, 58, 59, 60, 61, 62, 63, 64, 65, 66, 67, 68, 69, 70, 71, 72, 73, 74, 75, 76, 77, 78, 79, 80, 81, 82, 83, 84, 85, 86, 87, 88, 89, 90, 91, 92, 93, 94, 95, 96, 97, 98, 99, 100, 101, 102, 103, 104, 105, 106, 107, 108, 109, 110, 111, 112, 113, 114, 115, 116, 117, 118, 119, 120, 121, 122, 123, 124, 125, 126, 127, 128, 129, 130, 131, 132, 133, 134, 135, 136, 137, 138, 139, 140, 141, 142, 143, 144, 145, 146, 147, 148, 149, 150, 151, 152, 153, 154, 155, 156, 157, 158, 159, 160, 161, 162, 163, 164, 165, 166, 167, 168, 169, 170, 171, 172, 173, 174, 175, 176, 177, 178, 179, 180, 181, 182, 183, 184, 185, 186, 187, 188, 189, 190, 191, 192, 193, 194, 195, 196, 197, 198, 199, 200, 201, 202, 203, 204, 205, 206, 207, 208, 209, 210, 211, 212, 213, 214, 215, 216, 217, 218, 219, 220, 221, 222, 223, 224, 225, 226, 227, 228, 229, 230, 231, 232, 233, 234, 235, 236, 237, 238, 239, 240, 241, 242, 243, 244, 245, 246, 247, 248, 249, 250, 251, 252, 253, 254, 255, 256, 257, 258, 259, 260, 261, 262, 263, 264, 265, 266, 267, 268, 269, 270, 271, 272, 273, 274, 275, 276, 277, 278, 279, 280, 281, 282, 283, 284, 285, 286, 287, 288, 289, 290, 291, 292, 293, 294, 295, 296, 297, 298, 299, 300, 301, 302, 303, 304, 305, 306, 307, 308, 309, 310, 311, 312, 313, 314, 315, 316, 317, 318, 319, 320, 321, 322, 323, 324, 325, 326, 327, 328, 329, 330],
      "LargestImagePixelValue": [2731, 2700, 2743, 2647, 2632, 2624, 2636, 2658, 2722, 2725, 2561, 2559, 2544, 2596, 2598, 2517, 2558, 2495, 2489, 2581, 2555, 2557, 2577, 2554, 2560, 2578, 2538, 2568, 2658, 2565, 2595, 2508, 2547, 2517, 2618, 2548, 2630, 2532, 2577, 2553, 2638, 2478, 2551, 2560, 2577, 2591, 2626, 2607, 2642, 2615, 2608, 2552, 2575, 2499, 2614, 2585, 2571, 2581, 2577, 2620, 2559, 2581, 2607, 2596, 2574, 2611, 2648, 2555, 2677, 2562, 2531, 2543, 2598, 2597, 2705, 2601, 2696, 2607, 2575, 2609, 2612, 2594, 2587, 2593, 2584, 2560, 2572, 2590, 2643, 2618, 2577, 2651, 2607, 2559, 2635, 2547, 2650, 2554, 2713, 2568, 2564, 2561, 2569, 2590, 2555, 2595, 2554, 2562, 2611, 2633, 2613, 2646, 2638, 2687, 2633, 2666, 2634, 2630, 2560, 2658, 2588, 2683, 2560, 2639, 2641, 2547, 2561, 2662, 2631, 2558, 2571, 2657, 2555, 2543, 2630, 2594, 2583, 2680, 2574, 2601, 2605, 2659, 2578, 2553, 2564, 2583, 2617, 2612, 2591, 2573, 2592, 2614, 2604, 2586, 2622, 2538, 2580, 2534, 2537, 2589, 2583, 2594, 2584, 2558, 2591, 2560, 2571, 2612, 2503, 2558, 2635, 2563, 2597, 2553, 2642, 2576, 2542, 2526, 2553, 2577, 2547, 2529, 2587, 2560, 2567, 2526, 2582, 2655, 2634, 2615, 2593, 2583, 2566, 2647, 2550, 2619, 2585, 2576, 2543, 2592, 2540, 2583, 2608, 2580, 2556, 2615, 2578, 2548, 2596, 2583, 2656, 2650, 2598, 2592, 2532, 2599, 2556, 2591, 2564, 2541, 2577, 2566, 2568, 2551, 2596, 2558, 2615, 2540, 2600, 2571, 2592, 2553, 2622, 2498, 2561, 2579, 2516, 2582, 2596, 2585, 2618, 2626, 2595, 2580, 2566, 2583, 2563, 2548, 2526, 2600, 2596, 2574, 2588, 2542, 2553, 2596, 2586, 2588, 2566, 2621, 2615, 2605, 2574, 2610, 2601, 2618, 2636, 2592, 2594, 2631, 2575, 2564, 2596, 2612, 2585, 2515, 2597, 2599, 2619, 2614, 2585, 2581, 2544, 2588, 2617, 2608, 2653, 2620, 2605, 2592, 2597, 2579, 2658, 2594, 2589, 2576, 2628, 2680, 2555, 2577, 2594, 2572, 2596, 2614, 2595, 2616, 2575, 2566, 2590, 2662, 2647, 2610, 2679, 2596, 2734, 2678, 2643, 2694, 2687, 2648, 2715, 2660, 2681, 2699, 2701, 2637, 2744, 2647, 2737, 2582],
      "WindowCenter": [435.0, 435.0, 435.0, 433.0, 432.0, 431.0, 432.0, 432.0, 432.0, 432.0, 433.0, 433.0, 430.0, 429.0, 430.0, 428.0, 428.0, 427.0, 427.0, 428.0, 428.0, 428.0, 427.0, 427.0, 427.0, 427.0, 427.0, 427.0, 428.0, 427.0, 429.0, 427.0, 427.0, 428.0, 429.0, 429.0, 430.0, 429.0, 429.0, 428.0, 428.0, 427.0, 427.0, 427.0, 427.0, 428.0, 429.0, 428.0, 429.0, 429.0, 429.0, 431.0, 432.0, 431.0, 432.0, 431.0, 430.0, 429.0, 429.0, 430.0, 428.0, 428.0, 428.0, 428.0, 428.0, 429.0, 430.0, 428.0, 429.0, 430.0, 430.0, 430.0, 429.0, 430.0, 431.0, 429.0, 429.0, 428.0, 427.0, 427.0, 428.0, 429.0, 430.0, 430.0, 430.0, 428.0, 427.0, 427.0, 428.0, 429.0, 431.0, 433.0, 432.0, 432.0, 432.0, 431.0, 432.0, 430.0, 432.0, 431.0, 430.0, 430.0, 430.0, 430.0, 430.0, 431.0, 431.0, 431.0, 431.0, 431.0, 430.0, 432.0, 432.0, 433.0, 433.0, 433.0, 432.0, 432.0, 431.0, 431.0, 430.0, 432.0, 431.0, 431.0, 433.0, 432.0, 432.0, 431.0, 430.0, 430.0, 431.0, 431.0, 430.0, 430.0, 431.0, 431.0, 431.0, 431.0, 430.0, 429.0, 427.0, 428.0, 429.0, 429.0, 429.0, 429.0, 429.0, 428.0, 428.0, 427.0, 428.0, 429.0, 429.0, 429.0, 431.0, 431.0, 430.0, 429.0, 429.0, 430.0, 431.0, 432.0, 432.0, 432.0, 433.0, 431.0, 430.0, 430.0, 430.0, 430.0, 430.0, 429.0, 428.0, 428.0, 429.0, 429.0, 432.0, 431.0, 431.0, 431.0, 430.0, 429.0, 428.0, 428.0, 429.0, 429.0, 428.0, 428.0, 427.0, 427.0, 427.0, 427.0, 428.0, 430.0, 430.0, 430.0, 428.0, 428.0, 429.0, 428.0, 426.0, 425.0, 424.0, 424.0, 424.0, 425.0, 426.0, 427.0, 427.0, 428.0, 429.0, 430.0, 430.0, 432.0, 431.0, 433.0, 433.0, 432.0, 431.0, 431.0, 431.0, 432.0, 430.0, 431.0, 432.0, 431.0, 431.0, 431.0, 431.0, 431.0, 431.0, 431.0, 432.0, 432.0, 432.0, 432.0, 431.0, 432.0, 431.0, 429.0, 426.0, 425.0, 425.0, 426.0, 429.0, 430.0, 432.0, 432.0, 432.0, 432.0, 431.0, 429.0, 429.0, 429.0, 428.0, 428.0, 427.0, 426.0, 426.0, 426.0, 426.0, 426.0, 427.0, 428.0, 429.0, 430.0, 430.0, 429.0, 429.0, 431.0, 431.0, 431.0, 432.0, 432.0, 431.0, 430.0, 431.0, 430.0, 431.0, 431.0, 431.0, 430.0, 429.0, 429.0, 430.0, 431.0, 434.0, 436.0, 437.0, 437.0, 436.0, 435.0, 434.0, 431.0, 430.0, 430.0, 432.0, 433.0, 432.0, 433.0, 433.0, 432.0, 432.0, 432.0, 432.0, 432.0, 432.0, 434.0, 435.0, 436.0, 435.0, 434.0, 433.0, 432.0, 433.0, 432.0, 431.0, 432.0, 432.0, 432.0, 432.0, 431.0, 432.0, 433.0, 433.0, 433.0, 433.0, 432.0, 433.0, 432.0],
