{
  "AcquisitionMatrixPE": 104,
  "AcquisitionNumber": 1,
  "AcquisitionTime": "13:01:58.050000",
  "BandwidthPerPixelPhaseEncode": 43.054,
  "BaseResolution": 104,
  "CoilString": "C:E1_2",
  "ConversionSoftware": "dcm2niix",
  "ConversionSoftwareVersion": "v1.0.20191031",
  "DerivedVendorReportedEchoSpacing": 0.000669999,
  "DeviceSerialNumber": "18932",
  "DwellTime": 2.8e-06,
  "EchoTime": 0.02,
  "EffectiveEchoSpacing": 0.000223333,
  "FlipAngle": 30,
  "ImageComments": "Unaliased_MB2_PE2",
  "ImageOrientationPatientDICOM": [1, 0, 0, 0, 0.988756, -0.149535],
  "ImageType": [
    "ORIGINAL",
    "PRIMARY",
    "M",
    "MB",
    "ND",
    "MOSAIC"
],
  "ImagingFrequency": 297.229,
  "InPlanePhaseEncodingDirectionDICOM": "COL",
  "InstitutionAddress": "Richmond_Street_North_1151_London_409EF2_Ontario_CA_N6A_5B7",
  "InstitutionName": "Robarts_Reserch_Institute",
  "InstitutionalDepartmentName": "Department",
  "MRAcquisitionType": "2D",
  "MagneticFieldStrength": 6.98,
  "Manufacturer": "Siemens",
  "ManufacturersModelName": "Investigational_Device_7T",
  "Modality": "MR",
  "MultibandAccelerationFactor": 2,
  "ParallelReductionFactorInPlane": 3,
  "PartialFourier": 0.875,
  "PatientPosition": "HFS",
  "PercentPhaseFOV": 100,
  "PhaseEncodingDirection": "j-",
  "PhaseEncodingSteps": 91,
  "PhaseResolution": 1,
  "PixelBandwidth": 1717,
  "ProcedureStepDescription": "Diedrichsen_SeqRep4",
  "ProtocolName": "mbep2d_bold_mb2_p3_AP_2iso",
  "PulseSequenceDetails": "%CustomerSeq%_cmrr_mbep2d_bold",
  "ReceiveCoilName": "CFMM_8Tx32Rx",
  "ReconMatrixPE": 104,
  "RefLinesPE": 36,
  "RepetitionTime": 1,
  "ScanOptions": "PFP_FS",
  "ScanningSequence": "EP",
  "SequenceName": "epfid2d1_104",
  "SequenceVariant": "SK_SS",
  "SeriesDescription": "mbep2d_bold_mb2_p3_AP_2iso",
  "SeriesNumber": 16,
  "ShimSetting": [-16, 1963, 280, 451, 67, -195, -266, -123],
  "SliceThickness": 2,
  "SliceTiming": [0, 0.2275, 0.455, 0.6825, 0.91, 0.135, 0.365, 0.5925, 0.82, 0.045, 0.2725, 0.5, 0.73, 0.9575, 0.1825, 0.41, 0.6375, 0.865, 0.09, 0.3175, 0.5475, 0.775, 0, 0.2275, 0.455, 0.6825, 0.91, 0.135, 0.365, 0.5925, 0.82, 0.045, 0.2725, 0.5, 0.73, 0.9575, 0.1825, 0.41, 0.6375, 0.865, 0.09, 0.3175, 0.5475, 0.775],
  "SoftwareVersions": "syngo_MR_B17",
  "SpacingBetweenSlices": 2,
  "StationName": "MASTER",
  "TaskName": "dsp",
  "TotalReadoutTime": 0.0230033,
  "TxRefAmp": 120,
  "dcmmeta_affine": [
    [-2.0, 0.0, 0.0, 107.6319580078125],
    [0.0, 1.9775127172470093, -0.29907068610191345, -106.04757690429688],
    [0.0, 0.29907068610191345, 1.9775127172470093, -46.19629669189453],
    [0.0, 0.0, 0.0, 1.0]
],
  "dcmmeta_reorient_transform": [
    [0.0, -1.0, 0.0, 103.0],
    [1.0, 0.0, 0.0, 0.0],
    [0.0, 0.0, 1.0, 0.0],
    [0.0, 0.0, 0.0, 1.0]
],
  "dcmmeta_shape": [104, 104, 44, 330],
  "dcmmeta_slice_dim": 2,
  "dcmmeta_version": 0.6,
  "global": {
    "const": {
      "AcquisitionMatrix": [104, 0, 0, 104],
      "AngioFlag": "N",
      "BitsAllocated": 16,
      "BitsStored": 12,
      "Columns": 728,
      "EchoNumbers": 1,
      "EchoTime": 20.0,
      "EchoTrainLength": 1,
      "FlipAngle": 30.0,
      "HighBit": 11,
      "ImageOrientationPatient": [1.0, 0.0, 0.0, 0.0, 0.98875638160626, -0.1495353397458],
      "ImagePositionPatient": [-731.63196134567, -714.62022165698, 77.918034173961],
      "ImageType": [
        "ORIGINAL",
        "PRIMARY",
        "M",
        "MB",
        "ND",
        "MOSAIC"
],
      "ImagedNucleus": "1H",
      "ImagingFrequency": 297.229249,
      "InPlanePhaseEncodingDirection": "COL",
      "MRAcquisitionType": "2D",
      "MagneticFieldStrength": 6.98,
      "Manufacturer": "SIEMENS",
      "ManufacturerModelName": "Investigational_Device_7T",
      "Modality": "MR",
      "NumberOfAverages": 1.0,
      "NumberOfPhaseEncodingSteps": 91,
      "PercentPhaseFieldOfView": 100.0,
      "PercentSampling": 100.0,
      "PerformedProcedureStepStartTime": "123916.500000",
      "PhotometricInterpretation": "MONOCHROME2",
      "PixelBandwidth": 1717.0,
      "PixelRepresentation": 0,
      "PixelSpacing": [2.0, 2.0],
      "ProtocolName": "mbep2d_bold_mb2_p3_AP 2iso",
      "RepetitionTime": 1000.0,
      "Rows": 728,
      "SAR": 0.0,
      "SamplesPerPixel": 1,
      "ScanOptions": [
        "PFP",
        "FS"
],
      "ScanningSequence": "EP",
      "SequenceName": "epfid2d1_104",
      "SequenceVariant": [
        "SK",
        "SS"
],
      "SeriesDescription": "mbep2d_bold_mb2_p3_AP 2iso",
      "SeriesNumber": 16,
      "SeriesTime": "130231.093000",
      "SliceLocation": -29.819024103006,
      "SliceThickness": 2.0,
      "SmallestImagePixelValue": 0,
      "SoftwareVersions": "syngo MR B17",
      "SpacingBetweenSlices": 1.9999999990406,
      "SpecificCharacterSet": "ISO_IR 100",
      "StudyID": "1",
      "StudyTime": "123916.437000",
      "TransmitCoilName": "CFMM_8Tx32Rx",
      "VariableFlipAngleFlag": "N",
      "WindowCenterWidthExplanation": "Algo1",
      "dBdt": 0.0},
    "slices": {}
  },
  "time": {
    "samples": {
      "AcquisitionNumber": [1, 2, 3, 4, 5, 6, 7, 8, 9, 10, 11, 12, 13, 14, 15, 16, 17, 18, 19, 20, 21, 22, 23, 24, 25, 26, 27, 28, 29, 30, 31, 32, 33, 34, 35, 36, 37, 38, 39, 40, 41, 42, 43, 44, 45, 46, 47, 48, 49, 50, 51, 52, 53, 54, 55, 56, 57, 58, 59, 60, 61, 62, 63, 64, 65, 66, 67, 68, 69, 70, 71, 72, 73, 74, 75, 76, 77, 78, 79, 80, 81, 82, 83, 84, 85, 86, 87, 88, 89, 90, 91, 92, 93, 94, 95, 96, 97, 98, 99, 100, 101, 102, 103, 104, 105, 106, 107, 108, 109, 110, 111, 112, 113, 114, 115, 116, 117, 118, 119, 120, 121, 122, 123, 124, 125, 126, 127, 128, 129, 130, 131, 132, 133, 134, 135, 136, 137, 138, 139, 140, 141, 142, 143, 144, 145, 146, 147, 148, 149, 150, 151, 152, 153, 154, 155, 156, 157, 158, 159, 160, 161, 162, 163, 164, 165, 166, 167, 168, 169, 170, 171, 172, 173, 174, 175, 176, 177, 178, 179, 180, 181, 182, 183, 184, 185, 186, 187, 188, 189, 190, 191, 192, 193, 194, 195, 196, 197, 198, 199, 200, 201, 202, 203, 204, 205, 206, 207, 208, 209, 210, 211, 212, 213, 214, 215, 216, 217, 218, 219, 220, 221, 222, 223, 224, 225, 226, 227, 228, 229, 230, 231, 232, 233, 234, 235, 236, 237, 238, 239, 240, 241, 242, 243, 244, 245, 246, 247, 248, 249, 250, 251, 252, 253, 254, 255, 256, 257, 258, 259, 260, 261, 262, 263, 264, 265, 266, 267, 268, 269, 270, 271, 272, 273, 274, 275, 276, 277, 278, 279, 280, 281, 282, 283, 284, 285, 286, 287, 288, 289, 290, 291, 292, 293, 294, 295, 296, 297, 298, 299, 300, 301, 302, 303, 304, 305, 306, 307, 308, 309, 310, 311, 312, 313, 314, 315, 316, 317, 318, 319, 320, 321, 322, 323, 324, 325, 326, 327, 328, 329, 330],
      "AcquisitionTime": ["130158.050000", "130159.052500", "130200.057500", "130201.060000", "130202.065000", "130203.070000", "130204.072500", "130205.077500", "130206.080000", "130207.085000", "130208.090000", "130209.092500", "130210.097500", "130211.100000", "130212.105000", "130213.110000", "130214.112500", "130215.117500", "130216.122500", "130217.125000", "130218.130000", "130219.132500", "130220.137500", "130221.142500", "130222.145000", "130223.150000", "130224.152500", "130225.157500", "130226.162500", "130227.165000", "130228.170000", "130229.172500", "130230.177500", "130231.182500", "130232.185000", "130233.190000", "130234.192500", "130235.197500", "130236.202500", "130237.205000", "130238.210000", "130239.212500", "130240.217500", "130241.222500", "130242.225000", "130243.230000", "130244.232500", "130245.237500", "130246.242500", "130247.245000", "130248.250000", "130249.255000", "130250.257500", "130251.262500", "130252.265000", "130253.270000", "130254.275000", "130255.277500", "130256.282500", "130257.285000", "130258.290000", "130259.295000", "130300.297500", "130301.302500", "130302.305000", "130303.310000", "130304.315000", "130305.317500", "130306.322500", "130307.325000", "130308.330000", "130309.335000", "130310.337500", "130311.342500", "130312.345000", "130313.350000", "130314.355000", "130315.357500", "130316.362500", "130317.367500", "130318.370000", "130319.375000", "130320.377500", "130321.382500", "130322.387500", "130323.390000", "130324.395000", "130325.397500", "130326.402500", "130327.407500", "130328.410000", "130329.415000", "130330.417500", "130331.422500", "130332.427500", "130333.430000", "130334.435000", "130335.437500", "130336.442500", "130337.447500", "130338.450000", "130339.455000", "130340.457500", "130341.462500", "130342.467500", "130343.470000", "130344.475000", "130345.477500", "130346.482500", "130347.487500", "130348.490000", "130349.495000", "130350.500000", "130351.502500", "130352.507500", "130353.510000", "130354.515000", "130355.520000", "130356.522500", "130357.527500", "130358.530000", "130359.535000", "130400.540000", "130401.542500", "130402.547500", "130403.550000", "130404.555000", "130405.560000", "130406.562500", "130407.567500", "130408.570000", "130409.575000", "130410.580000", "130411.582500", "130412.587500", "130413.590000", "130414.595000", "130415.600000", "130416.602500", "130417.607500", "130418.610000", "130419.615000", "130420.620000", "130421.622500", "130422.627500", "130423.632500", "130424.635000", "130425.640000", "130426.642500", "130427.647500", "130428.652500", "130429.655000", "130430.660000", "130431.662500", "130432.667500", "130433.672500", "130434.675000", "130435.680000", "130436.682500", "130437.687500", "130438.692500", "130439.695000", "130440.700000", "130441.702500", "130442.707500", "130443.712500", "130444.715000", "130445.720000", "130446.722500", "130447.727500", "130448.732500", "130449.735000", "130450.740000", "130451.745000", "130452.747500", "130453.752500", "130454.755000", "130455.760000", "130456.765000", "130457.767500", "130458.772500", "130459.775000", "130500.780000", "130501.785000", "130502.787500", "130503.792500", "130504.795000", "130505.800000", "130506.805000", "130507.807500", "130508.812500", "130509.815000", "130510.820000", "130511.825000", "130512.827500", "130513.832500", "130514.835000", "130515.840000", "130516.845000", "130517.847500", "130518.852500", "130519.855000", "130520.860000", "130521.865000", "130522.867500", "130523.872500", "130524.877500", "130525.880000", "130526.885000", "130527.887500", "130528.892500", "130529.897500", "130530.900000", "130531.905000", "130532.907500", "130533.912500", "130534.917500", "130535.920000", "130536.925000", "130537.927500", "130538.932500", "130539.937500", "130540.940000", "130541.945000", "130542.947500", "130543.952500", "130544.957500", "130545.960000", "130546.965000", "130547.967500", "130548.972500", "130549.977500", "130550.980000", "130551.985000", "130552.990000", "130553.992500", "130554.997500", "130556.000000", "130557.005000", "130558.010000", "130559.012500", "130600.017500", "130601.020000", "130602.025000", "130603.030000", "130604.032500", "130605.037500", "130606.040000", "130607.045000", "130608.050000", "130609.052500", "130610.057500", "130611.060000", "130612.065000", "130613.070000", "130614.072500", "130615.077500", "130616.080000", "130617.085000", "130618.090000", "130619.092500", "130620.097500", "130621.100000", "130622.105000", "130623.110000", "130624.112500", "130625.117500", "130626.122500", "130627.125000", "130628.130000", "130629.132500", "130630.137500", "130631.142500", "130632.145000", "130633.150000", "130634.152500", "130635.157500", "130636.162500", "130637.165000", "130638.170000", "130639.172500", "130640.177500", "130641.182500", "130642.185000", "130643.190000", "130644.192500", "130645.197500", "130646.202500", "130647.205000", "130648.210000", "130649.212500", "130650.217500", "130651.222500", "130652.225000", "130653.230000", "130654.232500", "130655.237500", "130656.242500", "130657.245000", "130658.250000", "130659.255000", "130700.257500", "130701.262500", "130702.265000", "130703.270000", "130704.275000", "130705.277500", "130706.282500", "130707.285000", "130708.290000", "130709.295000", "130710.297500", "130711.302500", "130712.305000", "130713.310000", "130714.315000", "130715.317500", "130716.322500", "130717.325000", "130718.330000", "130719.335000", "130720.337500", "130721.342500", "130722.345000", "130723.350000", "130724.355000", "130725.357500", "130726.362500", "130727.367500", "130728.370000"],
      "ContentTime": ["130231.093000", "130231.109000", "130231.109000", "130231.109000", "130231.109000", "130231.109000", "130231.109000", "130231.109000", "130231.125000", "130231.125000", "130231.125000", "130231.125000", "130231.125000", "130231.125000", "130231.125000", "130231.140000", "130231.140000", "130231.140000", "130231.140000", "130231.140000", "130231.156000", "130231.156000", "130231.156000", "130231.156000", "130231.156000", "130231.156000", "130231.156000", "130231.171000", "130231.171000", "130231.171000", "130231.171000", "130251.062000", "130251.062000", "130251.078000", "130251.078000", "130251.078000", "130251.078000", "130251.078000", "130251.078000", "130251.093000", "130251.093000", "130251.093000", "130251.093000", "130251.093000", "130251.093000", "130251.093000", "130251.109000", "130251.109000", "130251.109000", "130251.109000", "130251.109000", "130311.062000", "130311.062000", "130311.078000", "130311.078000", "130311.078000", "130311.078000", "130311.078000", "130311.078000", "130311.078000", "130311.093000", "130311.093000", "130311.093000", "130311.093000", "130311.093000", "130311.093000", "130311.093000", "130311.109000", "130311.109000", "130311.109000", "130311.109000", "130331.062000", "130331.062000", "130331.078000", "130331.078000", "130331.078000", "130331.078000", "130331.078000", "130331.078000", "130331.078000", "130331.078000", "130331.093000", "130331.093000", "130331.093000", "130331.093000", "130331.093000", "130331.109000", "130331.109000", "130331.109000", "130331.109000", "130331.109000", "130351.062000", "130351.062000", "130351.078000", "130351.078000", "130351.078000", "130351.078000", "130351.078000", "130351.078000", "130351.093000", "130351.093000", "130351.093000", "130351.093000", "130351.093000", "130351.093000", "130351.093000", "130351.109000", "130351.109000", "130351.109000", "130351.109000", "130351.109000", "130411.062000", "130411.078000", "130411.078000", "130411.078000", "130411.078000", "130411.093000", "130411.093000", "130411.093000", "130411.093000", "130411.093000", "130411.093000", "130411.093000", "130411.109000", "130411.109000", "130411.109000", "130411.109000", "130411.109000", "130411.109000", "130411.125000", "130411.125000", "130431.062000", "130431.062000", "130431.078000", "130431.078000", "130431.078000", "130431.078000", "130431.078000", "130431.078000", "130431.078000", "130431.078000", "130431.093000", "130431.093000", "130431.093000", "130431.093000", "130431.093000", "130431.093000", "130431.093000", "130431.109000", "130431.109000", "130431.109000", "130451.062000", "130451.062000", "130451.078000", "130451.078000", "130451.078000", "130451.078000", "130451.078000", "130451.078000", "130451.078000", "130451.078000", "130451.093000", "130451.093000", "130451.093000", "130451.093000", "130451.093000", "130451.093000", "130451.093000", "130451.109000", "130451.109000", "130451.109000", "130511.062000", "130511.062000", "130511.078000", "130511.078000", "130511.078000", "130511.078000", "130511.078000", "130511.093000", "130511.093000", "130511.093000", "130511.093000", "130511.093000", "130511.093000", "130511.109000", "130511.109000", "130511.109000", "130511.109000", "130511.109000", "130511.109000", "130511.109000", "130531.062000", "130531.062000", "130531.078000", "130531.078000", "130531.078000", "130531.078000", "130531.078000", "130531.078000", "130531.078000", "130531.093000", "130531.093000", "130531.093000", "130531.093000", "130531.093000", "130531.093000", "130531.109000", "130531.109000", "130531.109000", "130531.109000", "130531.109000", "130551.062000", "130551.062000", "130551.078000", "130551.078000", "130551.078000", "130551.078000", "130551.078000", "130551.078000", "130551.078000", "130551.078000", "130551.093000", "130551.093000", "130551.093000", "130551.093000", "130551.093000", "130551.109000", "130551.109000", "130551.109000", "130551.109000", "130551.109000", "130611.062000", "130611.062000", "130611.078000", "130611.078000", "130611.078000", "130611.078000", "130611.078000", "130611.078000", "130611.078000", "130611.078000", "130611.093000", "130611.093000", "130611.093000", "130611.093000", "130611.093000", "130611.093000", "130611.093000", "130611.109000", "130611.109000", "130611.109000", "130631.062000", "130631.062000", "130631.078000", "130631.078000", "130631.078000", "130631.078000", "130631.078000", "130631.078000", "130631.078000", "130631.078000", "130631.093000", "130631.093000", "130631.093000", "130631.093000", "130631.093000", "130631.093000", "130631.109000", "130631.109000", "130631.109000", "130631.109000", "130651.062000", "130651.062000", "130651.078000", "130651.078000", "130651.078000", "130651.078000", "130651.078000", "130651.078000", "130651.078000", "130651.093000", "130651.093000", "130651.093000", "130651.093000", "130651.093000", "130651.093000", "130651.093000", "130651.109000", "130651.109000", "130651.109000", "130651.109000", "130711.062000", "130711.062000", "130711.078000", "130711.078000", "130711.078000", "130711.078000", "130711.078000", "130711.078000", "130711.078000", "130711.078000", "130711.093000", "130711.093000", "130711.093000", "130711.093000", "130711.093000", "130711.109000", "130711.109000", "130711.109000", "130711.109000", "130711.109000", "130734.531000", "130734.531000", "130734.531000", "130734.531000", "130734.531000", "130734.531000", "130734.546000", "130734.546000", "130734.546000", "130734.546000", "130734.546000", "130734.546000", "130734.546000", "130734.562000", "130734.562000", "130734.562000", "130734.562000", "130734.562000", "130734.562000"],
      "InstanceCreationTime": ["130231.093000", "130231.109000", "130231.109000", "130231.109000", "130231.109000", "130231.109000", "130231.109000", "130231.109000", "130231.125000", "130231.125000", "130231.125000", "130231.125000", "130231.125000", "130231.125000", "130231.125000", "130231.140000", "130231.140000", "130231.140000", "130231.140000", "130231.140000", "130231.156000", "130231.156000", "130231.156000", "130231.156000", "130231.156000", "130231.156000", "130231.156000", "130231.171000", "130231.171000", "130231.171000", "130231.171000", "130251.062000", "130251.062000", "130251.078000", "130251.078000", "130251.078000", "130251.078000", "130251.078000", "130251.078000", "130251.093000", "130251.093000", "130251.093000", "130251.093000", "130251.093000", "130251.093000", "130251.093000", "130251.109000", "130251.109000", "130251.109000", "130251.109000", "130251.109000", "130311.062000", "130311.062000", "130311.078000", "130311.078000", "130311.078000", "130311.078000", "130311.078000", "130311.078000", "130311.078000", "130311.093000", "130311.093000", "130311.093000", "130311.093000", "130311.093000", "130311.093000", "130311.093000", "130311.109000", "130311.109000", "130311.109000", "130311.109000", "130331.062000", "130331.062000", "130331.078000", "130331.078000", "130331.078000", "130331.078000", "130331.078000", "130331.078000", "130331.078000", "130331.078000", "130331.093000", "130331.093000", "130331.093000", "130331.093000", "130331.093000", "130331.109000", "130331.109000", "130331.109000", "130331.109000", "130331.109000", "130351.062000", "130351.062000", "130351.078000", "130351.078000", "130351.078000", "130351.078000", "130351.078000", "130351.078000", "130351.093000", "130351.093000", "130351.093000", "130351.093000", "130351.093000", "130351.093000", "130351.093000", "130351.109000", "130351.109000", "130351.109000", "130351.109000", "130351.109000", "130411.062000", "130411.078000", "130411.078000", "130411.078000", "130411.078000", "130411.093000", "130411.093000", "130411.093000", "130411.093000", "130411.093000", "130411.093000", "130411.093000", "130411.109000", "130411.109000", "130411.109000", "130411.109000", "130411.109000", "130411.109000", "130411.125000", "130411.125000", "130431.062000", "130431.062000", "130431.078000", "130431.078000", "130431.078000", "130431.078000", "130431.078000", "130431.078000", "130431.078000", "130431.078000", "130431.093000", "130431.093000", "130431.093000", "130431.093000", "130431.093000", "130431.093000", "130431.093000", "130431.109000", "130431.109000", "130431.109000", "130451.062000", "130451.062000", "130451.078000", "130451.078000", "130451.078000", "130451.078000", "130451.078000", "130451.078000", "130451.078000", "130451.078000", "130451.093000", "130451.093000", "130451.093000", "130451.093000", "130451.093000", "130451.093000", "130451.093000", "130451.109000", "130451.109000", "130451.109000", "130511.062000", "130511.062000", "130511.078000", "130511.078000", "130511.078000", "130511.078000", "130511.078000", "130511.093000", "130511.093000", "130511.093000", "130511.093000", "130511.093000", "130511.093000", "130511.109000", "130511.109000", "130511.109000", "130511.109000", "130511.109000", "130511.109000", "130511.109000", "130531.062000", "130531.062000", "130531.078000", "130531.078000", "130531.078000", "130531.078000", "130531.078000", "130531.078000", "130531.078000", "130531.093000", "130531.093000", "130531.093000", "130531.093000", "130531.093000", "130531.093000", "130531.109000", "130531.109000", "130531.109000", "130531.109000", "130531.109000", "130551.062000", "130551.062000", "130551.078000", "130551.078000", "130551.078000", "130551.078000", "130551.078000", "130551.078000", "130551.078000", "130551.078000", "130551.093000", "130551.093000", "130551.093000", "130551.093000", "130551.093000", "130551.109000", "130551.109000", "130551.109000", "130551.109000", "130551.109000", "130611.062000", "130611.062000", "130611.078000", "130611.078000", "130611.078000", "130611.078000", "130611.078000", "130611.078000", "130611.078000", "130611.078000", "130611.093000", "130611.093000", "130611.093000", "130611.093000", "130611.093000", "130611.093000", "130611.093000", "130611.109000", "130611.109000", "130611.109000", "130631.062000", "130631.062000", "130631.078000", "130631.078000", "130631.078000", "130631.078000", "130631.078000", "130631.078000", "130631.078000", "130631.078000", "130631.093000", "130631.093000", "130631.093000", "130631.093000", "130631.093000", "130631.093000", "130631.109000", "130631.109000", "130631.109000", "130631.109000", "130651.062000", "130651.062000", "130651.078000", "130651.078000", "130651.078000", "130651.078000", "130651.078000", "130651.078000", "130651.078000", "130651.093000", "130651.093000", "130651.093000", "130651.093000", "130651.093000", "130651.093000", "130651.093000", "130651.109000", "130651.109000", "130651.109000", "130651.109000", "130711.062000", "130711.062000", "130711.078000", "130711.078000", "130711.078000", "130711.078000", "130711.078000", "130711.078000", "130711.078000", "130711.078000", "130711.093000", "130711.093000", "130711.093000", "130711.093000", "130711.093000", "130711.109000", "130711.109000", "130711.109000", "130711.109000", "130711.109000", "130734.531000", "130734.531000", "130734.531000", "130734.531000", "130734.531000", "130734.531000", "130734.546000", "130734.546000", "130734.546000", "130734.546000", "130734.546000", "130734.546000", "130734.546000", "130734.562000", "130734.562000", "130734.562000", "130734.562000", "130734.562000", "130734.562000"],
      "InstanceNumber": [1, 2, 3, 4, 5, 6, 7, 8, 9, 10, 11, 12, 13, 14, 15, 16, 17, 18, 19, 20, 21, 22, 23, 24, 25, 26, 27, 28, 29, 30, 31, 32, 33, 34, 35, 36, 37, 38, 39, 40, 41, 42, 43, 44, 45, 46, 47, 48, 49, 50, 51, 52, 53, 54, 55, 56, 57, 58, 59, 60, 61, 62, 63, 64, 65, 66, 67, 68, 69, 70, 71, 72, 73, 74, 75, 76, 77, 78, 79, 80, 81, 82, 83, 84, 85, 86, 87, 88, 89, 90, 91, 92, 93, 94, 95, 96, 97, 98, 99, 100, 101, 102, 103, 104, 105, 106, 107, 108, 109, 110, 111, 112, 113, 114, 115, 116, 117, 118, 119, 120, 121, 122, 123, 124, 125, 126, 127, 128, 129, 130, 131, 132, 133, 134, 135, 136, 137, 138, 139, 140, 141, 142, 143, 144, 145, 146, 147, 148, 149, 150, 151, 152, 153, 154, 155, 156, 157, 158, 159, 160, 161, 162, 163, 164, 165, 166, 167, 168, 169, 170, 171, 172, 173, 174, 175, 176, 177, 178, 179, 180, 181, 182, 183, 184, 185, 186, 187, 188, 189, 190, 191, 192, 193, 194, 195, 196, 197, 198, 199, 200, 201, 202, 203, 204, 205, 206, 207, 208, 209, 210, 211, 212, 213, 214, 215, 216, 217, 218, 219, 220, 221, 222, 223, 224, 225, 226, 227, 228, 229, 230, 231, 232, 233, 234, 235, 236, 237, 238, 239, 240, 241, 242, 243, 244, 245, 246, 247, 248, 249, 250, 251, 252, 253, 254, 255, 256, 257, 258, 259, 260, 261, 262, 263, 264, 265, 266, 267, 268, 269, 270, 271, 272, 273, 274, 275, 276, 277, 278, 279, 280, 281, 282, 283, 284, 285, 286, 287, 288, 289, 290, 291, 292, 293, 294, 295, 296, 297, 298, 299, 300, 301, 302, 303, 304, 305, 306, 307, 308, 309, 310, 311, 312, 313, 314, 315, 316, 317, 318, 319, 320, 321, 322, 323, 324, 325, 326, 327, 328, 329, 330],
      "LargestImagePixelValue": [2598, 2511, 2507, 2508, 2477, 2504, 2454, 2458, 2430, 2494, 2462, 2457, 2450, 2480, 2517, 2471, 2505, 2458, 2489, 2470, 2496, 2470, 2502, 2510, 2479, 2514, 2486, 2523, 2490, 2466, 2488, 2528, 2465, 2483, 2534, 2507, 2540, 2498, 2511, 2490, 2476, 2473, 2482, 2549, 2496, 2494, 2516, 2538, 2481, 2521, 2549, 2499, 2508, 2468, 2542, 2533, 2500, 2507, 2505, 2522, 2553, 2576, 2520, 2532, 2526, 2565, 2560, 2565, 2542, 2588, 2593, 2566, 2637, 2562, 2554, 2513, 2581, 2572, 2572, 2596, 2576, 2636, 2605, 2559, 2541, 2576, 2573, 2580, 2592, 2568, 2510, 2556, 2484, 2507, 2461, 2488, 2497, 2496, 2530, 2554, 2564, 2577, 2578, 2529, 2466, 2441, 2560, 2552, 2532, 2522, 2554, 2519, 2554, 2530, 2554, 2529, 2552, 2563, 2564, 2578, 2585, 2571, 2540, 2486, 2524, 2529, 2549, 2552, 2554, 2576, 2564, 2608, 2577, 2551, 2554, 2564, 2590, 2589, 2592, 2558, 2550, 2527, 2510, 2559, 2589, 2564, 2561, 2551, 2571, 2524, 2540, 2555, 2578, 2595, 2560, 2593, 2551, 2579, 2635, 2609, 2588, 2633, 2586, 2593, 2576, 2572, 2570, 2588, 2550, 2566, 2585, 2596, 2575, 2567, 2571, 2591, 2567, 2549, 2586, 2596, 2582, 2618, 2578, 2534, 2555, 2587, 2589, 2580, 2565, 2574, 2565, 2574, 2590, 2539, 2521, 2588, 2586, 2584, 2540, 2513, 2581, 2562, 2583, 2490, 2532, 2593, 2580, 2556, 2537, 2568, 2542, 2562, 2535, 2531, 2525, 2497, 2543, 2542, 2519, 2483, 2510, 2566, 2552, 2520, 2534, 2546, 2498, 2510, 2545, 2528, 2550, 2492, 2453, 2460, 2467, 2522, 2477, 2535, 2484, 2508, 2539, 2536, 2614, 2581, 2516, 2579, 2554, 2526, 2539, 2563, 2519, 2440, 2501, 2499, 2509, 2519, 2535, 2608, 2566, 2586, 2589, 2545, 2558, 2576, 2613, 2522, 2537, 2553, 2556, 2524, 2505, 2538, 2505, 2503, 2524, 2530, 2551, 2533, 2527, 2518, 2500, 2491, 2584, 2520, 2529, 2521, 2529, 2531, 2505, 2503, 2542, 2542, 2506, 2539, 2522, 2508, 2515, 2480, 2490, 2551, 2556, 2476, 2546, 2512, 2493, 2520, 2505, 2517, 2528, 2528, 2565, 2525, 2463, 2475, 2435, 2529, 2512, 2442, 2441, 2520, 2497, 2486, 2442, 2452, 2459, 2534, 2490, 2541, 2513, 2528],
      "WindowCenter": [425.0, 423.0, 425.0, 426.0, 427.0, 426.0, 426.0, 427.0, 427.0, 428.0, 428.0, 427.0, 427.0, 427.0, 426.0, 426.0, 425.0, 425.0, 426.0, 428.0, 430.0, 431.0, 432.0, 433.0, 432.0, 431.0, 430.0, 429.0, 428.0, 428.0, 429.0, 429.0, 428.0, 427.0, 429.0, 430.0, 432.0, 431.0, 432.0, 430.0, 429.0, 429.0, 430.0, 431.0, 432.0, 431.0, 430.0, 430.0, 429.0, 430.0, 431.0, 432.0, 431.0, 430.0, 431.0, 431.0, 432.0, 431.0, 430.0, 430.0, 431.0, 431.0, 430.0, 429.0, 428.0, 429.0, 429.0, 431.0, 431.0, 432.0, 433.0, 433.0, 432.0, 433.0, 433.0, 431.0, 431.0, 430.0, 431.0, 430.0, 430.0, 429.0, 429.0, 429.0, 431.0, 432.0, 432.0, 430.0, 429.0, 429.0, 428.0, 430.0, 427.0, 428.0, 426.0, 426.0, 425.0, 424.0, 424.0, 424.0, 424.0, 424.0, 427.0, 429.0, 429.0, 429.0, 431.0, 431.0, 431.0, 430.0, 430.0, 428.0, 426.0, 424.0, 425.0, 425.0, 425.0, 425.0, 427.0, 425.0, 426.0, 428.0, 427.0, 427.0, 427.0, 427.0, 426.0, 427.0, 427.0, 427.0, 428.0, 428.0, 428.0, 429.0, 428.0, 429.0, 430.0, 430.0, 429.0, 427.0, 428.0, 429.0, 430.0, 431.0, 429.0, 427.0, 426.0, 427.0, 428.0, 427.0, 428.0, 428.0, 427.0, 427.0, 426.0, 426.0, 426.0, 427.0, 429.0, 430.0, 431.0, 431.0, 430.0, 429.0, 429.0, 429.0, 431.0, 432.0, 431.0, 431.0, 430.0, 430.0, 428.0, 426.0, 427.0, 428.0, 429.0, 429.0, 431.0, 432.0, 431.0, 431.0, 431.0, 430.0, 430.0, 432.0, 433.0, 434.0, 432.0, 432.0, 432.0, 432.0, 433.0, 431.0, 431.0, 433.0, 434.0, 434.0, 433.0, 434.0, 434.0, 434.0, 434.0, 433.0, 434.0, 434.0, 433.0, 433.0, 433.0, 432.0, 433.0, 433.0, 432.0, 432.0, 433.0, 433.0, 434.0, 434.0, 433.0, 431.0, 433.0, 432.0, 432.0, 431.0, 431.0, 431.0, 430.0, 430.0, 430.0, 431.0, 430.0, 429.0, 429.0, 429.0, 429.0, 429.0, 428.0, 429.0, 430.0, 429.0, 429.0, 428.0, 427.0, 426.0, 426.0, 428.0, 429.0, 428.0, 429.0, 430.0, 432.0, 433.0, 434.0, 435.0, 434.0, 432.0, 430.0, 429.0, 429.0, 428.0, 428.0, 427.0, 427.0, 428.0, 430.0, 431.0, 431.0, 432.0, 433.0, 433.0, 434.0, 433.0, 433.0, 432.0, 432.0, 432.0, 433.0, 434.0, 434.0, 434.0, 434.0, 435.0, 435.0, 435.0, 436.0, 436.0, 436.0, 436.0, 434.0, 432.0, 433.0, 434.0, 434.0, 435.0, 433.0, 432.0, 433.0, 433.0, 431.0, 430.0, 430.0, 430.0, 431.0, 430.0, 430.0, 432.0, 432.0, 432.0, 431.0, 431.0, 431.0, 431.0, 430.0, 431.0, 430.0, 431.0, 431.0, 430.0, 430.0, 431.0, 430.0, 430.0, 430.0, 431.0, 431.0, 433.0, 432.0, 432.0, 432.0, 432.0],
