{
    "AcquisitionMatrixPE": 84,
    "AcquisitionNumber": 1,
    "AcquisitionTime": "10:28:10.342500",
    "BaseResolution": 168,
    "CoilString": "C:E1_2",
    "ConversionSoftware": "dcm2niix",
    "ConversionSoftwareVersion": "v1.0.20191031",
    "DeviceSerialNumber": "18932",
    "DwellTime": 4.9e-06,
    "EchoNumber": 2,
    "EchoTime": 0.0051,
    "EchoTime1": 0.00408,
    "EchoTime2": 0.0051,
    "FlipAngle": 35,
    "ImageOrientationPatientDICOM": [
        1,
        -2.05103e-10,
        0,
        2.05103e-10,
        1,
        0
    ],
    "ImageType": [
        "ORIGINAL",
        "PRIMARY",
        "P",
        "ND",
        "PHASE"
    ],
    "ImagingFrequency": 297.23,
    "InPlanePhaseEncodingDirectionDICOM": "ROW",
    "InstitutionAddress": "Richmond_Street_North_1151_London_409EF2_Ontario_CA_N6A_5B7",
    "InstitutionName": "Robarts_Reserch_Institute",
    "InstitutionalDepartmentName": "Department",
    "MRAcquisitionType": "2D",
    "MagneticFieldStrength": 6.98,
    "Manufacturer": "Siemens",
    "ManufacturersModelName": "Investigational_Device_7T",
    "Modality": "MR",
    "PartialFourier": 0.75,
    "PatientPosition": "HFS",
    "PercentPhaseFOV": 100,
    "PhaseEncodingDirection": "i",
    "PhaseEncodingSteps": 63,
    "PhaseResolution": 0.5,
    "PixelBandwidth": 607,
    "ProcedureStepDescription": "Diedrichsen_SeqRep4",
    "ProtocolName": "gre_field_mapping",
    "PulseSequenceDetails": "%SiemensSeq%_gre_field_mapping",
    "ReceiveCoilName": "CFMM_8Tx32Rx",
    "ReconMatrixPE": 168,
    "RepetitionTime": 0.475,
    "ScanOptions": "PFP",
    "ScanningSequence": "GR",
    "SequenceName": "fm2d2r",
    "SequenceVariant": "SP",
    "SeriesDescription": "gre_field_mapping",
    "SeriesNumber": 37,
    "ShimSetting": [
        -39,
        2025,
        376,
        241,
        228,
        77,
        -97,
        -67
    ],
    "SliceThickness": 2.5,
    "SliceTiming": [
        0.24219,
        0,
        0.25,
        0.00781,
        0.25781,
        0.01562,
        0.26562,
        0.02344,
        0.27344,
        0.03125,
        0.28125,
        0.03906,
        0.28906,
        0.04688,
        0.29688,
        0.05469,
        0.30469,
        0.0625,
        0.30469,
        0.07031,
        0.3125,
        0.07812,
        0.32031,
        0.08594,
        0.32812,
        0.09375,
        0.33594,
        0.10156,
        0.34375,
        0.10938,
        0.35156,
        0.11719,
        0.35938,
        0.125,
        0.36719,
        0.13281,
        0.375,
        0.14062,
        0.38281,
        0.14844,
        0.39062,
        0.15625,
        0.39844,
        0.16406,
        0.40625,
        0.17188,
        0.41406,
        0.17969,
        0.42188,
        0.17969,
        0.42969,
        0.1875,
        0.4375,
        0.19531,
        0.44531,
        0.20312,
        0.45312,
        0.21094,
        0.46094,
        0.21875,
        0.46875,
        0.22656,
        0.47656,
        0.23438
    ],
    "SoftwareVersions": "syngo_MR_B17",
    "SpacingBetweenSlices": 2.5,
    "StationName": "MASTER",
    "TxRefAmp": 124,
    "dcmmeta_affine": [
        [
            -1.25,
            2.5637925116228644e-10,
            0.0,
            105.54801177978516
        ],
        [
            2.5637925116228644e-10,
            1.25,
            0.0,
            -106.77745056152344
        ],
        [
            0.0,
            0.0,
            2.5,
            -75.11368560791016
        ],
        [
            0.0,
            0.0,
            0.0,
            1.0
        ]
    ],
    "dcmmeta_reorient_transform": [
        [
            0.0,
            -1.0,
            0.0,
            167.0
        ],
        [
            1.0,
            0.0,
            0.0,
            0.0
        ],
        [
            0.0,
            0.0,
            -1.0,
            63.0
        ],
        [
            0.0,
            0.0,
            0.0,
            1.0
        ]
    ],
    "dcmmeta_shape": [
        168,
        168,
        64
    ],
    "dcmmeta_slice_dim": 2,
    "dcmmeta_version": 0.6,
    "global": {
        "const": {
            "AcquisitionMatrix": [
                0,
                168,
                84,
                0
            ],
            "AcquisitionNumber": 1,
            "AngioFlag": "N",
            "BitsAllocated": 16,
            "BitsStored": 12,
            "Columns": 168,
            "EchoNumbers": 2,
            "EchoTime": 5.1,
            "EchoTrainLength": 1,
            "FlipAngle": 35.0,
            "HighBit": 11,
            "ImageOrientationPatient": [
                1.0,
                -2.051034e-10,
                0.0,
                2.051034e-10,
                1.0,
                0.0
            ],
            "ImageType": [
                "ORIGINAL",
                "PRIMARY",
                "P",
                "ND"
            ],
            "ImagedNucleus": "1H",
            "ImagingFrequency": 297.230185,
            "InPlanePhaseEncodingDirection": "ROW",
            "MRAcquisitionType": "2D",
            "MagneticFieldStrength": 6.98,
            "Manufacturer": "SIEMENS",
            "ManufacturerModelName": "Investigational_Device_7T",
            "Modality": "MR",
            "NumberOfAverages": 1.0,
            "NumberOfPhaseEncodingSteps": 63,
            "PercentPhaseFieldOfView": 100.0,
            "PercentSampling": 50.0,
            "PerformedProcedureStepStartTime": "085638.812000",
            "PhotometricInterpretation": "MONOCHROME2",
            "PixelBandwidth": 607.0,
            "PixelRepresentation": 0,
            "PixelSpacing": [
                1.25,
                1.25
            ],
            "ProtocolName": "gre_field_mapping",
            "RepetitionTime": 475.0,
            "RescaleIntercept": -4096.0,
            "RescaleSlope": 2.0,
            "RescaleType": "US",
            "Rows": 168,
            "SAR": 0.0,
            "SamplesPerPixel": 1,
            "ScanOptions": "PFP",
            "ScanningSequence": "GR",
            "SequenceName": "fm2d2r",
            "SequenceVariant": "SP",
            "SeriesDescription": "gre_field_mapping",
            "SeriesNumber": 37,
            "SeriesTime": "102916.078000",
            "SliceThickness": 2.5,
            "SoftwareVersions": "syngo MR B17",
            "SpacingBetweenSlices": 2.5,
            "SpecificCharacterSet": "ISO_IR 100",
            "StudyID": "1",
            "StudyTime": "085638.765000",
            "TransmitCoilName": "CFMM_8Tx32Rx",
            "VariableFlipAngleFlag": "N",
            "WindowCenterWidthExplanation": "Algo1",
            "dBdt": 0.0
        },
        "slices": {
            "AcquisitionTime": [
                "102810.342500",
                "102810.105000",
                "102810.350000",
                "102810.112500",
                "102810.357500",
                "102810.120000",
                "102810.365000",
                "102810.127500",
                "102810.372500",
                "102810.135000",
                "102810.380000",
                "102810.142500",
                "102810.387500",
                "102810.150000",
                "102810.395000",
                "102810.157500",
                "102810.402500",
                "102810.165000",
                "102810.410000",
                "102810.172500",
                "102810.417500",
                "102810.180000",
                "102810.425000",
                "102810.187500",
                "102810.432500",
                "102810.195000",
                "102810.440000",
                "102810.202500",
                "102810.447500",
                "102810.210000",
                "102810.455000",
                "102810.217500",
                "102810.462500",
                "102810.225000",
                "102810.470000",
                "102810.232500",
                "102810.477500",
                "102810.240000",
                "102810.485000",
                "102810.247500",
                "102810.492500",
                "102810.255000",
                "102810.500000",
                "102810.262500",
                "102810.507500",
                "102810.270000",
                "102810.515000",
                "102810.277500",
                "102810.522500",
                "102810.285000",
                "102810.530000",
                "102810.292500",
                "102810.537500",
                "102810.297500",
                "102810.545000",
                "102810.305000",
                "102810.552500",
                "102810.312500",
                "102810.560000",
                "102810.320000",
                "102810.567500",
                "102810.327500",
                "102810.575000",
                "102810.335000"
            ],
            "ContentTime": [
                "102916.171000",
                "102916.093000",
                "102916.171000",
                "102916.093000",
                "102916.171000",
                "102916.093000",
                "102916.171000",
                "102916.109000",
                "102916.171000",
                "102916.109000",
                "102916.171000",
                "102916.109000",
                "102916.171000",
                "102916.109000",
                "102916.281000",
                "102916.109000",
                "102916.296000",
                "102916.109000",
                "102916.296000",
                "102916.109000",
                "102916.296000",
                "102916.125000",
                "102916.296000",
                "102916.125000",
                "102916.296000",
                "102916.125000",
                "102916.296000",
                "102916.125000",
                "102916.296000",
                "102916.125000",
                "102916.312000",
                "102916.125000",
                "102916.312000",
                "102916.125000",
                "102916.312000",
                "102916.125000",
                "102916.312000",
                "102916.140000",
                "102916.312000",
                "102916.140000",
                "102916.312000",
                "102916.140000",
                "102916.312000",
                "102916.140000",
                "102916.312000",
                "102916.140000",
                "102916.343000",
                "102916.140000",
                "102916.343000",
                "102916.140000",
                "102916.343000",
                "102916.140000",
                "102916.343000",
                "102916.156000",
                "102916.343000",
                "102916.156000",
                "102916.343000",
                "102916.156000",
                "102916.359000",
                "102916.156000",
                "102916.359000",
                "102916.156000",
                "102916.359000",
                "102916.156000"
            ],
            "CsaImage.ICE_Dims": [
                "X_2_1_1_1_1_1_33_1_1_1_1_63",
                "X_2_1_1_1_1_1_1_1_1_2_1_63",
                "X_2_1_1_1_1_1_34_1_1_3_1_63",
                "X_2_1_1_1_1_1_2_1_1_4_1_63",
                "X_2_1_1_1_1_1_35_1_1_5_1_63",
                "X_2_1_1_1_1_1_3_1_1_6_1_63",
                "X_2_1_1_1_1_1_36_1_1_7_1_63",
                "X_2_1_1_1_1_1_4_1_1_8_1_63",
                "X_2_1_1_1_1_1_37_1_1_9_1_63",
                "X_2_1_1_1_1_1_5_1_1_10_1_63",
                "X_2_1_1_1_1_1_38_1_1_11_1_63",
                "X_2_1_1_1_1_1_6_1_1_12_1_63",
                "X_2_1_1_1_1_1_39_1_1_13_1_63",
                "X_2_1_1_1_1_1_7_1_1_14_1_63",
                "X_2_1_1_1_1_1_40_1_1_15_1_63",
                "X_2_1_1_1_1_1_8_1_1_16_1_63",
                "X_2_1_1_1_1_1_41_1_1_17_1_63",
                "X_2_1_1_1_1_1_9_1_1_18_1_63",
                "X_2_1_1_1_1_1_42_1_1_19_1_63",
                "X_2_1_1_1_1_1_10_1_1_20_1_63",
                "X_2_1_1_1_1_1_43_1_1_21_1_63",
                "X_2_1_1_1_1_1_11_1_1_22_1_63",
                "X_2_1_1_1_1_1_44_1_1_23_1_63",
                "X_2_1_1_1_1_1_12_1_1_24_1_63",
                "X_2_1_1_1_1_1_45_1_1_25_1_63",
                "X_2_1_1_1_1_1_13_1_1_26_1_63",
                "X_2_1_1_1_1_1_46_1_1_27_1_63",
                "X_2_1_1_1_1_1_14_1_1_28_1_63",
                "X_2_1_1_1_1_1_47_1_1_29_1_63",
                "X_2_1_1_1_1_1_15_1_1_30_1_63",
                "X_2_1_1_1_1_1_48_1_1_31_1_63",
                "X_2_1_1_1_1_1_16_1_1_32_1_63",
                "X_2_1_1_1_1_1_49_1_1_33_1_63",
                "X_2_1_1_1_1_1_17_1_1_34_1_63",
                "X_2_1_1_1_1_1_50_1_1_35_1_63",
                "X_2_1_1_1_1_1_18_1_1_36_1_63",
                "X_2_1_1_1_1_1_51_1_1_37_1_63",
                "X_2_1_1_1_1_1_19_1_1_38_1_63",
                "X_2_1_1_1_1_1_52_1_1_39_1_63",
                "X_2_1_1_1_1_1_20_1_1_40_1_63",
                "X_2_1_1_1_1_1_53_1_1_41_1_63",
                "X_2_1_1_1_1_1_21_1_1_42_1_63",
                "X_2_1_1_1_1_1_54_1_1_43_1_63",
                "X_2_1_1_1_1_1_22_1_1_44_1_63",
                "X_2_1_1_1_1_1_55_1_1_45_1_63",
                "X_2_1_1_1_1_1_23_1_1_46_1_63",
                "X_2_1_1_1_1_1_56_1_1_47_1_63",
                "X_2_1_1_1_1_1_24_1_1_48_1_63",
                "X_2_1_1_1_1_1_57_1_1_49_1_63",
                "X_2_1_1_1_1_1_25_1_1_50_1_63",
                "X_2_1_1_1_1_1_58_1_1_51_1_63",
                "X_2_1_1_1_1_1_26_1_1_52_1_63",
                "X_2_1_1_1_1_1_59_1_1_53_1_63",
                "X_2_1_1_1_1_1_27_1_1_54_1_63",
                "X_2_1_1_1_1_1_60_1_1_55_1_63",
                "X_2_1_1_1_1_1_28_1_1_56_1_63",
                "X_2_1_1_1_1_1_61_1_1_57_1_63",
                "X_2_1_1_1_1_1_29_1_1_58_1_63",
                "X_2_1_1_1_1_1_62_1_1_59_1_63",
                "X_2_1_1_1_1_1_30_1_1_60_1_63",
                "X_2_1_1_1_1_1_63_1_1_61_1_63",
                "X_2_1_1_1_1_1_31_1_1_62_1_63",
                "X_2_1_1_1_1_1_64_1_1_63_1_63",
                "X_2_1_1_1_1_1_32_1_1_64_1_63"
            ],
            "CsaImage.ProtocolSliceNumber": [
                0,
                1,
                2,
                3,
                4,
                5,
                6,
                7,
                8,
                9,
                10,
                11,
                12,
                13,
                14,
                15,
                16,
                17,
                18,
                19,
                20,
                21,
                22,
                23,
                24,
                25,
                26,
                27,
                28,
                29,
                30,
                31,
                32,
                33,
                34,
                35,
                36,
                37,
                38,
                39,
                40,
                41,
                42,
                43,
                44,
                45,
                46,
                47,
                48,
                49,
                50,
                51,
                52,
                53,
                54,
                55,
                56,
                57,
                58,
                59,
                60,
                61,
                62,
                63
            ],
            "CsaImage.SliceMeasurementDuration": [
                59137.5,
                59137.5,
                59137.5,
                59137.5,
                59137.5,
                59137.5,
                59137.5,
                59137.5,
                59137.5,
                59137.5,
                59137.5,
                59137.5,
                59137.5,
                59137.5,
                59137.5,
                59135.0,
                59137.5,
                59135.0,
                59137.5,
                59135.0,
                59137.5,
                59135.0,
                59137.5,
                59135.0,
                59137.5,
                59135.0,
                59137.5,
                59135.0,
                59137.5,
                59135.0,
                59137.5,
                59135.0,
                59137.5,
                59135.0,
                59137.5,
                59135.0,
                59137.5,
                59135.0,
                59137.5,
                59135.0,
                59137.5,
                59135.0,
                59137.5,
                59135.0,
                59137.5,
                59135.0,
                59137.5,
                59135.0,
                59137.5,
                59135.0,
                59135.0,
                59135.0,
                59135.0,
                59137.5,
                59135.0,
                59137.5,
                59135.0,
                59137.5,
                59135.0,
                59137.5,
                59135.0,
                59137.5,
                59135.0,
                59137.5
            ],
            "CsaImage.SlicePosition_PCS": [
                [
                    -105.54801043,
                    -101.97254989,
                    -75.11368561
                ],
                [
                    -105.54801043,
                    -101.97254989,
                    -72.61368561
                ],
                [
                    -105.54801043,
                    -101.97254989,
                    -70.11368561
                ],
                [
                    -105.54801043,
                    -101.97254989,
                    -67.61368561
                ],
                [
                    -105.54801043,
                    -101.97254989,
                    -65.11368561
                ],
                [
                    -105.54801043,
                    -101.97254989,
                    -62.61368561
                ],
                [
                    -105.54801043,
                    -101.97254989,
                    -60.11368561
                ],
                [
                    -105.54801043,
                    -101.97254989,
                    -57.61368561
                ],
                [
                    -105.54801043,
                    -101.97254989,
                    -55.11368561
                ],
                [
                    -105.54801043,
                    -101.97254989,
                    -52.61368561
                ],
                [
                    -105.54801043,
                    -101.97254989,
                    -50.11368561
                ],
                [
                    -105.54801043,
                    -101.97254989,
                    -47.61368561
                ],
                [
                    -105.54801043,
                    -101.97254989,
                    -45.11368561
                ],
                [
                    -105.54801043,
                    -101.97254989,
                    -42.61368561
                ],
                [
                    -105.54801043,
                    -101.97254989,
                    -40.11368561
                ],
                [
                    -105.54801043,
                    -101.97254989,
                    -37.61368561
                ],
                [
                    -105.54801043,
                    -101.97254989,
                    -35.11368561
                ],
                [
                    -105.54801043,
                    -101.97254989,
                    -32.61368561
                ],
                [
                    -105.54801043,
                    -101.97254989,
                    -30.11368561
                ],
                [
                    -105.54801043,
                    -101.97254989,
                    -27.61368561
                ],
                [
                    -105.54801043,
                    -101.97254989,
                    -25.11368561
                ],
                [
                    -105.54801043,
                    -101.97254989,
                    -22.61368561
                ],
                [
                    -105.54801043,
                    -101.97254989,
                    -20.11368561
                ],
                [
                    -105.54801043,
                    -101.97254989,
                    -17.61368561
                ],
                [
                    -105.54801043,
                    -101.97254989,
                    -15.11368561
                ],
                [
                    -105.54801043,
                    -101.97254989,
                    -12.61368561
                ],
                [
                    -105.54801043,
                    -101.97254989,
                    -10.11368561
                ],
                [
                    -105.54801043,
                    -101.97254989,
                    -7.61368561
                ],
                [
                    -105.54801043,
                    -101.97254989,
                    -5.11368561
                ],
                [
                    -105.54801043,
                    -101.97254989,
                    -2.61368537
                ],
                [
                    -105.54801043,
                    -101.97254989,
                    -0.11368541
                ],
                [
                    -105.54801043,
                    -101.97254989,
                    2.38631463
                ],
                [
                    -105.54801043,
                    -101.97254989,
                    4.88631439
                ],
                [
                    -105.54801043,
                    -101.97254989,
                    7.38631439
                ],
                [
                    -105.54801043,
                    -101.97254989,
                    9.88631439
                ],
                [
                    -105.54801043,
                    -101.97254989,
                    12.38631439
                ],
                [
                    -105.54801043,
                    -101.97254989,
                    14.88631439
                ],
                [
                    -105.54801043,
                    -101.97254989,
                    17.38631439
                ],
                [
                    -105.54801043,
                    -101.97254989,
                    19.88631439
                ],
                [
                    -105.54801043,
                    -101.97254989,
                    22.38631439
                ],
                [
                    -105.54801043,
                    -101.97254989,
                    24.88631439
                ],
                [
                    -105.54801043,
                    -101.97254989,
                    27.38631439
                ],
                [
                    -105.54801043,
                    -101.97254989,
                    29.88631439
                ],
                [
                    -105.54801043,
                    -101.97254989,
                    32.38631439
                ],
                [
                    -105.54801043,
                    -101.97254989,
                    34.88631439
                ],
                [
                    -105.54801043,
                    -101.97254989,
                    37.38631439
                ],
                [
                    -105.54801043,
                    -101.97254989,
                    39.88631439
                ],
                [
                    -105.54801043,
                    -101.97254989,
                    42.38631439
                ],
                [
                    -105.54801043,
                    -101.97254989,
                    44.88631439
                ],
                [
                    -105.54801043,
                    -101.97254989,
                    47.38631439
                ],
                [
                    -105.54801043,
                    -101.97254989,
                    49.88631439
                ],
                [
                    -105.54801043,
                    -101.97254989,
                    52.38631439
                ],
                [
                    -105.54801043,
                    -101.97254989,
                    54.88631439
                ],
                [
                    -105.54801043,
                    -101.97254989,
                    57.38631439
                ],
                [
                    -105.54801043,
                    -101.97254989,
                    59.88631439
                ],
                [
                    -105.54801043,
                    -101.97254989,
                    62.38631439
                ],
                [
                    -105.54801043,
                    -101.97254989,
                    64.88631439
                ],
                [
                    -105.54801043,
                    -101.97254989,
                    67.38631439
                ],
                [
                    -105.54801043,
                    -101.97254989,
                    69.88631439
                ],
                [
                    -105.54801043,
                    -101.97254989,
                    72.38631439
                ],
                [
                    -105.54801043,
                    -101.97254989,
                    74.88631439
                ],
                [
                    -105.54801043,
                    -101.97254989,
                    77.38631439
                ],
                [
                    -105.54801043,
                    -101.97254989,
                    79.88631439
                ],
                [
                    -105.54801043,
                    -101.97254989,
                    82.38631439
                ]
            ],
            "CsaImage.TimeAfterStart": [
                0.715,
                0.4775,
                0.7225,
                0.485,
                0.73,
                0.4925,
                0.7375,
                0.5,
                0.745,
                0.5075,
                0.7525,
                0.515,
                0.76,
                0.5225,
                0.7675,
                0.53,
                0.775,
                0.5375,
                0.7825,
                0.545,
                0.79,
                0.5525,
                0.7975,
                0.56,
                0.805,
                0.5675,
                0.8125,
                0.575,
                0.82,
                0.5825,
                0.8275,
                0.59,
                0.835,
                0.5975,
                0.8425,
                0.605,
                0.85,
                0.6125,
                0.8575,
                0.62,
                0.865,
                0.6275,
                0.8725,
                0.635,
                0.88,
                0.6425,
                0.8875,
                0.65,
                0.895,
                0.6575,
                0.9025,
                0.665,
                0.91,
                0.6725,
                0.9175,
                0.68,
                0.925,
                0.6875,
                0.9325,
                0.695,
                0.94,
                0.7025,
                0.9475,
                0.7075
            ],
            "ImagePositionPatient": [
                [
                    -105.54801043041,
                    -101.97254989378,
                    -75.11368560791
                ],
                [
                    -105.54801043041,
                    -101.97254989378,
                    -72.61368560791
                ],
                [
                    -105.54801043041,
                    -101.97254989378,
                    -70.11368560791
                ],
                [
                    -105.54801043041,
                    -101.97254989378,
                    -67.61368560791
                ],
                [
                    -105.54801043041,
                    -101.97254989378,
                    -65.11368560791
                ],
                [
                    -105.54801043041,
                    -101.97254989378,
                    -62.61368560791
                ],
                [
                    -105.54801043041,
                    -101.97254989378,
                    -60.11368560791
                ],
                [
                    -105.54801043041,
                    -101.97254989378,
                    -57.61368560791
                ],
                [
                    -105.54801043041,
                    -101.97254989378,
                    -55.11368560791
                ],
                [
                    -105.54801043041,
                    -101.97254989378,
                    -52.61368560791
                ],
                [
                    -105.54801043041,
                    -101.97254989378,
                    -50.11368560791
                ],
                [
                    -105.54801043041,
                    -101.97254989378,
                    -47.61368560791
                ],
                [
                    -105.54801043041,
                    -101.97254989378,
                    -45.11368560791
                ],
                [
                    -105.54801043041,
                    -101.97254989378,
                    -42.61368560791
                ],
                [
                    -105.54801043041,
                    -101.97254989378,
                    -40.11368560791
                ],
                [
                    -105.54801043041,
