{
  "AcquisitionMatrixPE": 104,
  "AcquisitionNumber": 1,
  "AcquisitionTime": "12:29:0.635000",
  "BandwidthPerPixelPhaseEncode": 43.054,
  "BaseResolution": 104,
  "CoilString": "C:E1_2",
  "ConversionSoftware": "dcm2niix",
  "ConversionSoftwareVersion": "v1.0.20191031",
  "DerivedVendorReportedEchoSpacing": 0.000669999,
  "DeviceSerialNumber": "18932",
  "DwellTime": 2.8e-06,
  "EchoTime": 0.02,
  "EffectiveEchoSpacing": 0.000223333,
  "FlipAngle": 30,
  "ImageComments": "Unaliased_MB2_PE2",
  "ImageOrientationPatientDICOM": [1, 0, 0, 0, 0.992966, -0.118404],
  "ImageType": [
    "ORIGINAL",
    "PRIMARY",
    "M",
    "MB",
    "ND",
    "MOSAIC"
],
  "ImagingFrequency": 297.229,
  "InPlanePhaseEncodingDirectionDICOM": "COL",
  "InstitutionAddress": "Richmond_Street_North_1151_London_409EF2_Ontario_CA_N6A_5B7",
  "InstitutionName": "Robarts_Reserch_Institute",
  "InstitutionalDepartmentName": "Department",
  "MRAcquisitionType": "2D",
  "MagneticFieldStrength": 6.98,
  "Manufacturer": "Siemens",
  "ManufacturersModelName": "Investigational_Device_7T",
  "Modality": "MR",
  "MultibandAccelerationFactor": 2,
  "ParallelReductionFactorInPlane": 3,
  "PartialFourier": 0.875,
  "PatientPosition": "HFS",
  "PercentPhaseFOV": 100,
  "PhaseEncodingDirection": "j-",
  "PhaseEncodingSteps": 91,
  "PhaseResolution": 1,
  "PixelBandwidth": 1717,
  "ProcedureStepDescription": "Diedrichsen_SeqRep4",
  "ProtocolName": "mbep2d_bold_mb2_p3_AP_2iso",
  "PulseSequenceDetails": "%CustomerSeq%_cmrr_mbep2d_bold",
  "ReceiveCoilName": "CFMM_8Tx32Rx",
  "ReconMatrixPE": 104,
  "RefLinesPE": 36,
  "RepetitionTime": 1,
  "ScanOptions": "PFP_FS",
  "ScanningSequence": "EP",
  "SequenceName": "epfid2d1_104",
  "SequenceVariant": "SK_SS",
  "SeriesDescription": "mbep2d_bold_mb2_p3_AP_2iso",
  "SeriesNumber": 15,
  "ShimSetting": [5, 2050, 86, 1698, -41, 218, -27, -187],
  "SliceThickness": 2,
  "SliceTiming": [0, 0.2275, 0.455, 0.6825, 0.91, 0.135, 0.365, 0.5925, 0.82, 0.045, 0.2725, 0.5, 0.7275, 0.9575, 0.1825, 0.41, 0.6375, 0.865, 0.09, 0.3175, 0.5475, 0.775, 0, 0.2275, 0.455, 0.6825, 0.91, 0.135, 0.365, 0.5925, 0.82, 0.045, 0.2725, 0.5, 0.7275, 0.9575, 0.1825, 0.41, 0.6375, 0.865, 0.09, 0.3175, 0.5475, 0.775],
  "SoftwareVersions": "syngo_MR_B17",
  "SpacingBetweenSlices": 2,
  "StationName": "MASTER",
  "TaskName": "dsp",
  "TotalReadoutTime": 0.0230033,
  "TxRefAmp": 120,
  "dcmmeta_affine": [
    [-2.0, 0.0, 0.0, 106.1791763305664],
    [0.0, 1.9859310388565063, -0.2368079274892807, -112.17391204833984],
    [0.0, 0.2368079274892807, 1.9859310388565063, -31.579612731933594],
    [0.0, 0.0, 0.0, 1.0]
],
  "dcmmeta_reorient_transform": [
    [0.0, -1.0, 0.0, 103.0],
    [1.0, 0.0, 0.0, 0.0],
    [0.0, 0.0, 1.0, 0.0],
    [0.0, 0.0, 0.0, 1.0]
],
  "dcmmeta_shape": [104, 104, 44, 330],
  "dcmmeta_slice_dim": 2,
  "dcmmeta_version": 0.6,
  "global": {
    "const": {
      "AcquisitionMatrix": [104, 0, 0, 104],
      "AngioFlag": "N",
      "BitsAllocated": 16,
      "BitsStored": 12,
      "Columns": 728,
      "EchoNumbers": 1,
      "EchoTime": 20.0,
      "EchoTrainLength": 1,
      "FlipAngle": 30.0,
      "HighBit": 11,
      "ImageOrientationPatient": [1.0, 0.0, 0.0, 0.0, 0.99296550822323, -0.1184039673279],
      "ImagePositionPatient": [-730.1791768074, -711.98746294641, 66.695679233359],
      "ImageType": [
        "ORIGINAL",
        "PRIMARY",
        "M",
        "MB",
        "ND",
        "MOSAIC"
],
      "ImagedNucleus": "1H",
      "ImagingFrequency": 297.228962,
      "InPlanePhaseEncodingDirection": "COL",
      "MRAcquisitionType": "2D",
      "MagneticFieldStrength": 6.98,
      "Manufacturer": "SIEMENS",
      "ManufacturerModelName": "Investigational_Device_7T",
      "Modality": "MR",
      "NumberOfAverages": 1.0,
      "NumberOfPhaseEncodingSteps": 91,
      "PercentPhaseFieldOfView": 100.0,
      "PercentSampling": 100.0,
      "PerformedProcedureStepStartTime": "120509.234000",
      "PhotometricInterpretation": "MONOCHROME2",
      "PixelBandwidth": 1717.0,
      "PixelRepresentation": 0,
      "PixelSpacing": [2.0, 2.0],
      "ProtocolName": "mbep2d_bold_mb2_p3_AP 2iso",
      "RepetitionTime": 1000.0,
      "Rows": 728,
      "SAR": 0.0,
      "SamplesPerPixel": 1,
      "ScanOptions": [
        "PFP",
        "FS"
],
      "ScanningSequence": "EP",
      "SequenceName": "epfid2d1_104",
      "SequenceVariant": [
        "SK",
        "SS"
],
      "SeriesDescription": "mbep2d_bold_mb2_p3_AP 2iso",
      "SeriesNumber": 15,
      "SeriesTime": "122937.437000",
      "SliceLocation": -18.075631274307,
      "SliceThickness": 2.0,
      "SmallestImagePixelValue": 0,
      "SoftwareVersions": "syngo MR B17",
      "SpacingBetweenSlices": 1.9999999835174,
      "SpecificCharacterSet": "ISO_IR 100",
      "StudyID": "1",
      "StudyTime": "120509.171000",
      "TransmitCoilName": "CFMM_8Tx32Rx",
      "VariableFlipAngleFlag": "N",
      "WindowCenterWidthExplanation": "Algo1",
      "dBdt": 0.0},
    "slices": {}
  },
  "time": {
    "samples": {
      "AcquisitionNumber": [1, 2, 3, 4, 5, 6, 7, 8, 9, 10, 11, 12, 13, 14, 15, 16, 17, 18, 19, 20, 21, 22, 23, 24, 25, 26, 27, 28, 29, 30, 31, 32, 33, 34, 35, 36, 37, 38, 39, 40, 41, 42, 43, 44, 45, 46, 47, 48, 49, 50, 51, 52, 53, 54, 55, 56, 57, 58, 59, 60, 61, 62, 63, 64, 65, 66, 67, 68, 69, 70, 71, 72, 73, 74, 75, 76, 77, 78, 79, 80, 81, 82, 83, 84, 85, 86, 87, 88, 89, 90, 91, 92, 93, 94, 95, 96, 97, 98, 99, 100, 101, 102, 103, 104, 105, 106, 107, 108, 109, 110, 111, 112, 113, 114, 115, 116, 117, 118, 119, 120, 121, 122, 123, 124, 125, 126, 127, 128, 129, 130, 131, 132, 133, 134, 135, 136, 137, 138, 139, 140, 141, 142, 143, 144, 145, 146, 147, 148, 149, 150, 151, 152, 153, 154, 155, 156, 157, 158, 159, 160, 161, 162, 163, 164, 165, 166, 167, 168, 169, 170, 171, 172, 173, 174, 175, 176, 177, 178, 179, 180, 181, 182, 183, 184, 185, 186, 187, 188, 189, 190, 191, 192, 193, 194, 195, 196, 197, 198, 199, 200, 201, 202, 203, 204, 205, 206, 207, 208, 209, 210, 211, 212, 213, 214, 215, 216, 217, 218, 219, 220, 221, 222, 223, 224, 225, 226, 227, 228, 229, 230, 231, 232, 233, 234, 235, 236, 237, 238, 239, 240, 241, 242, 243, 244, 245, 246, 247, 248, 249, 250, 251, 252, 253, 254, 255, 256, 257, 258, 259, 260, 261, 262, 263, 264, 265, 266, 267, 268, 269, 270, 271, 272, 273, 274, 275, 276, 277, 278, 279, 280, 281, 282, 283, 284, 285, 286, 287, 288, 289, 290, 291, 292, 293, 294, 295, 296, 297, 298, 299, 300, 301, 302, 303, 304, 305, 306, 307, 308, 309, 310, 311, 312, 313, 314, 315, 316, 317, 318, 319, 320, 321, 322, 323, 324, 325, 326, 327, 328, 329, 330],
      "AcquisitionTime": ["122900.635000", "122901.637500", "122902.642500", "122903.645000", "122904.650000", "122905.655000", "122906.657500", "122907.662500", "122908.665000", "122909.670000", "122910.675000", "122911.677500", "122912.682500", "122913.685000", "122914.690000", "122915.695000", "122916.697500", "122917.702500", "122918.705000", "122919.710000", "122920.715000", "122921.717500", "122922.722500", "122923.727500", "122924.730000", "122925.735000", "122926.737500", "122927.742500", "122928.747500", "122929.750000", "122930.755000", "122931.757500", "122932.762500", "122933.767500", "122934.770000", "122935.775000", "122936.777500", "122937.782500", "122938.787500", "122939.790000", "122940.795000", "122941.797500", "122942.802500", "122943.807500", "122944.810000", "122945.815000", "122946.817500", "122947.822500", "122948.827500", "122949.830000", "122950.835000", "122951.840000", "122952.842500", "122953.847500", "122954.850000", "122955.855000", "122956.860000", "122957.862500", "122958.867500", "122959.870000", "123000.875000", "123001.880000", "123002.882500", "123003.887500", "123004.890000", "123005.895000", "123006.900000", "123007.902500", "123008.907500", "123009.910000", "123010.915000", "123011.920000", "123012.922500", "123013.927500", "123014.930000", "123015.935000", "123016.940000", "123017.942500", "123018.947500", "123019.950000", "123020.955000", "123021.960000", "123022.962500", "123023.967500", "123024.972500", "123025.975000", "123026.980000", "123027.982500", "123028.987500", "123029.992500", "123030.995000", "123032.000000", "123033.002500", "123034.007500", "123035.012500", "123036.015000", "123037.020000", "123038.022500", "123039.027500", "123040.032500", "123041.035000", "123042.040000", "123043.042500", "123044.047500", "123045.052500", "123046.055000", "123047.060000", "123048.062500", "123049.067500", "123050.072500", "123051.075000", "123052.080000", "123053.082500", "123054.087500", "123055.092500", "123056.095000", "123057.100000", "123058.105000", "123059.107500", "123100.112500", "123101.115000", "123102.120000", "123103.125000", "123104.127500", "123105.132500", "123106.135000", "123107.140000", "123108.145000", "123109.147500", "123110.152500", "123111.155000", "123112.160000", "123113.165000", "123114.167500", "123115.172500", "123116.175000", "123117.180000", "123118.185000", "123119.187500", "123120.192500", "123121.195000", "123122.200000", "123123.205000", "123124.207500", "123125.212500", "123126.217500", "123127.220000", "123128.225000", "123129.227500", "123130.232500", "123131.237500", "123132.240000", "123133.245000", "123134.247500", "123135.252500", "123136.257500", "123137.260000", "123138.265000", "123139.267500", "123140.272500", "123141.277500", "123142.280000", "123143.285000", "123144.287500", "123145.292500", "123146.297500", "123147.300000", "123148.305000", "123149.307500", "123150.312500", "123151.317500", "123152.320000", "123153.325000", "123154.327500", "123155.332500", "123156.337500", "123157.340000", "123158.345000", "123159.350000", "123200.352500", "123201.357500", "123202.360000", "123203.365000", "123204.370000", "123205.372500", "123206.377500", "123207.380000", "123208.385000", "123209.390000", "123210.392500", "123211.397500", "123212.400000", "123213.405000", "123214.410000", "123215.412500", "123216.417500", "123217.420000", "123218.425000", "123219.430000", "123220.432500", "123221.437500", "123222.440000", "123223.445000", "123224.450000", "123225.452500", "123226.457500", "123227.460000", "123228.465000", "123229.470000", "123230.472500", "123231.477500", "123232.482500", "123233.485000", "123234.490000", "123235.492500", "123236.497500", "123237.502500", "123238.505000", "123239.510000", "123240.512500", "123241.517500", "123242.522500", "123243.525000", "123244.530000", "123245.532500", "123246.537500", "123247.542500", "123248.545000", "123249.550000", "123250.552500", "123251.557500", "123252.562500", "123253.565000", "123254.570000", "123255.572500", "123256.577500", "123257.582500", "123258.585000", "123259.590000", "123300.595000", "123301.597500", "123302.602500", "123303.605000", "123304.610000", "123305.615000", "123306.617500", "123307.622500", "123308.625000", "123309.630000", "123310.635000", "123311.637500", "123312.642500", "123313.645000", "123314.650000", "123315.655000", "123316.657500", "123317.662500", "123318.665000", "123319.670000", "123320.675000", "123321.677500", "123322.682500", "123323.685000", "123324.690000", "123325.695000", "123326.697500", "123327.702500", "123328.705000", "123329.710000", "123330.715000", "123331.717500", "123332.722500", "123333.727500", "123334.730000", "123335.735000", "123336.737500", "123337.742500", "123338.747500", "123339.750000", "123340.755000", "123341.757500", "123342.762500", "123343.767500", "123344.770000", "123345.775000", "123346.777500", "123347.782500", "123348.787500", "123349.790000", "123350.795000", "123351.797500", "123352.802500", "123353.807500", "123354.810000", "123355.815000", "123356.817500", "123357.822500", "123358.827500", "123359.830000", "123400.835000", "123401.840000", "123402.842500", "123403.847500", "123404.850000", "123405.855000", "123406.860000", "123407.862500", "123408.867500", "123409.870000", "123410.875000", "123411.880000", "123412.882500", "123413.887500", "123414.890000", "123415.895000", "123416.900000", "123417.902500", "123418.907500", "123419.910000", "123420.915000", "123421.920000", "123422.922500", "123423.927500", "123424.930000", "123425.935000", "123426.940000", "123427.942500", "123428.947500", "123429.950000", "123430.955000"],
      "ContentTime": ["122937.453000", "122937.453000", "122937.453000", "122937.453000", "122937.453000", "122937.453000", "122937.453000", "122937.453000", "122937.468000", "122937.468000", "122937.468000", "122937.468000", "122937.468000", "122937.468000", "122937.468000", "122937.484000", "122937.484000", "122937.484000", "122937.484000", "122937.484000", "122937.484000", "122937.484000", "122937.500000", "122937.500000", "122937.500000", "122937.500000", "122937.500000", "122937.500000", "122937.500000", "122937.515000", "122937.515000", "122937.515000", "122937.515000", "122937.515000", "122937.515000", "122937.515000", "122957.406000", "122957.406000", "122957.406000", "122957.421000", "122957.421000", "122957.421000", "122957.421000", "122957.421000", "122957.421000", "122957.421000", "122957.437000", "122957.437000", "122957.437000", "122957.437000", "122957.437000", "122957.437000", "122957.437000", "122957.437000", "122957.453000", "122957.453000", "123017.406000", "123017.406000", "123017.406000", "123017.421000", "123017.421000", "123017.421000", "123017.421000", "123017.421000", "123017.421000", "123017.421000", "123017.421000", "123017.437000", "123017.437000", "123017.437000", "123017.437000", "123017.437000", "123017.453000", "123017.453000", "123017.453000", "123017.453000", "123037.406000", "123037.406000", "123037.421000", "123037.421000", "123037.421000", "123037.421000", "123037.421000", "123037.437000", "123037.437000", "123037.437000", "123037.437000", "123037.437000", "123037.437000", "123037.437000", "123037.453000", "123037.453000", "123037.453000", "123037.453000", "123037.453000", "123037.453000", "123057.406000", "123057.406000", "123057.406000", "123057.421000", "123057.421000", "123057.421000", "123057.421000", "123057.421000", "123057.421000", "123057.437000", "123057.437000", "123057.437000", "123057.437000", "123057.437000", "123057.437000", "123057.437000", "123057.437000", "123057.453000", "123057.453000", "123057.453000", "123117.406000", "123117.406000", "123117.406000", "123117.421000", "123117.421000", "123117.421000", "123117.421000", "123117.421000", "123117.421000", "123117.437000", "123117.437000", "123117.437000", "123117.437000", "123117.437000", "123117.437000", "123117.453000", "123117.453000", "123117.453000", "123117.453000", "123117.453000", "123137.406000", "123137.406000", "123137.406000", "123137.421000", "123137.421000", "123137.421000", "123137.421000", "123137.421000", "123137.421000", "123137.421000", "123137.421000", "123137.437000", "123137.437000", "123137.437000", "123137.437000", "123137.437000", "123137.437000", "123137.437000", "123137.453000", "123137.453000", "123157.406000", "123157.406000", "123157.406000", "123157.421000", "123157.421000", "123157.421000", "123157.421000", "123157.421000", "123157.421000", "123157.421000", "123157.437000", "123157.437000", "123157.437000", "123157.437000", "123157.437000", "123157.437000", "123157.453000", "123157.453000", "123157.453000", "123157.453000", "123217.406000", "123217.406000", "123217.406000", "123217.421000", "123217.421000", "123217.421000", "123217.421000", "123217.437000", "123217.437000", "123217.437000", "123217.437000", "123217.437000", "123217.437000", "123217.453000", "123217.453000", "123217.453000", "123217.453000", "123217.453000", "123217.453000", "123217.468000", "123237.406000", "123237.406000", "123237.406000", "123237.421000", "123237.421000", "123237.421000", "123237.421000", "123237.421000", "123237.421000", "123237.421000", "123237.421000", "123237.437000", "123237.437000", "123237.437000", "123237.437000", "123237.437000", "123237.437000", "123237.453000", "123237.453000", "123237.453000", "123257.406000", "123257.406000", "123257.406000", "123257.421000", "123257.421000", "123257.421000", "123257.421000", "123257.421000", "123257.421000", "123257.421000", "123257.421000", "123257.437000", "123257.437000", "123257.437000", "123257.437000", "123257.437000", "123257.437000", "123257.437000", "123257.453000", "123257.453000", "123317.406000", "123317.406000", "123317.406000", "123317.421000", "123317.421000", "123317.421000", "123317.421000", "123317.421000", "123317.421000", "123317.421000", "123317.421000", "123317.437000", "123317.437000", "123317.437000", "123317.437000", "123317.437000", "123317.437000", "123317.437000", "123317.453000", "123317.453000", "123337.406000", "123337.406000", "123337.406000", "123337.421000", "123337.421000", "123337.421000", "123337.421000", "123337.421000", "123337.421000", "123337.421000", "123337.421000", "123337.437000", "123337.437000", "123337.437000", "123337.437000", "123337.437000", "123337.437000", "123337.437000", "123337.453000", "123337.453000", "123357.406000", "123357.406000", "123357.406000", "123357.421000", "123357.421000", "123357.421000", "123357.421000", "123357.421000", "123357.421000", "123357.421000", "123357.421000", "123357.437000", "123357.437000", "123357.437000", "123357.437000", "123357.437000", "123357.437000", "123357.437000", "123357.453000", "123357.453000", "123417.406000", "123417.406000", "123417.406000", "123417.421000", "123417.421000", "123417.421000", "123417.421000", "123417.421000", "123417.421000", "123417.421000", "123417.437000", "123417.437000", "123417.437000", "123417.437000", "123417.437000", "123417.437000", "123417.437000", "123417.453000", "123417.453000", "123417.453000", "123436.140000", "123436.140000", "123436.140000", "123436.140000", "123436.140000", "123436.140000", "123436.156000", "123436.156000", "123436.156000", "123436.156000", "123436.156000", "123436.156000", "123436.156000", "123436.171000"],
      "InstanceCreationTime": ["122937.453000", "122937.453000", "122937.453000", "122937.453000", "122937.453000", "122937.453000", "122937.453000", "122937.453000", "122937.468000", "122937.468000", "122937.468000", "122937.468000", "122937.468000", "122937.468000", "122937.468000", "122937.484000", "122937.484000", "122937.484000", "122937.484000", "122937.484000", "122937.484000", "122937.484000", "122937.500000", "122937.500000", "122937.500000", "122937.500000", "122937.500000", "122937.500000", "122937.500000", "122937.515000", "122937.515000", "122937.515000", "122937.515000", "122937.515000", "122937.515000", "122937.515000", "122957.406000", "122957.406000", "122957.406000", "122957.421000", "122957.421000", "122957.421000", "122957.421000", "122957.421000", "122957.421000", "122957.421000", "122957.437000", "122957.437000", "122957.437000", "122957.437000", "122957.437000", "122957.437000", "122957.437000", "122957.437000", "122957.453000", "122957.453000", "123017.406000", "123017.406000", "123017.406000", "123017.421000", "123017.421000", "123017.421000", "123017.421000", "123017.421000", "123017.421000", "123017.421000", "123017.421000", "123017.437000", "123017.437000", "123017.437000", "123017.437000", "123017.437000", "123017.453000", "123017.453000", "123017.453000", "123017.453000", "123037.406000", "123037.406000", "123037.421000", "123037.421000", "123037.421000", "123037.421000", "123037.421000", "123037.437000", "123037.437000", "123037.437000", "123037.437000", "123037.437000", "123037.437000", "123037.437000", "123037.453000", "123037.453000", "123037.453000", "123037.453000", "123037.453000", "123037.453000", "123057.406000", "123057.406000", "123057.406000", "123057.421000", "123057.421000", "123057.421000", "123057.421000", "123057.421000", "123057.421000", "123057.437000", "123057.437000", "123057.437000", "123057.437000", "123057.437000", "123057.437000", "123057.437000", "123057.437000", "123057.453000", "123057.453000", "123057.453000", "123117.406000", "123117.406000", "123117.406000", "123117.421000", "123117.421000", "123117.421000", "123117.421000", "123117.421000", "123117.421000", "123117.437000", "123117.437000", "123117.437000", "123117.437000", "123117.437000", "123117.437000", "123117.453000", "123117.453000", "123117.453000", "123117.453000", "123117.453000", "123137.406000", "123137.406000", "123137.406000", "123137.421000", "123137.421000", "123137.421000", "123137.421000", "123137.421000", "123137.421000", "123137.421000", "123137.421000", "123137.437000", "123137.437000", "123137.437000", "123137.437000", "123137.437000", "123137.437000", "123137.437000", "123137.453000", "123137.453000", "123157.406000", "123157.406000", "123157.406000", "123157.421000", "123157.421000", "123157.421000", "123157.421000", "123157.421000", "123157.421000", "123157.421000", "123157.437000", "123157.437000", "123157.437000", "123157.437000", "123157.437000", "123157.437000", "123157.453000", "123157.453000", "123157.453000", "123157.453000", "123217.406000", "123217.406000", "123217.406000", "123217.421000", "123217.421000", "123217.421000", "123217.421000", "123217.437000", "123217.437000", "123217.437000", "123217.437000", "123217.437000", "123217.437000", "123217.453000", "123217.453000", "123217.453000", "123217.453000", "123217.453000", "123217.453000", "123217.468000", "123237.406000", "123237.406000", "123237.406000", "123237.421000", "123237.421000", "123237.421000", "123237.421000", "123237.421000", "123237.421000", "123237.421000", "123237.421000", "123237.437000", "123237.437000", "123237.437000", "123237.437000", "123237.437000", "123237.437000", "123237.453000", "123237.453000", "123237.453000", "123257.406000", "123257.406000", "123257.406000", "123257.421000", "123257.421000", "123257.421000", "123257.421000", "123257.421000", "123257.421000", "123257.421000", "123257.421000", "123257.437000", "123257.437000", "123257.437000", "123257.437000", "123257.437000", "123257.437000", "123257.437000", "123257.453000", "123257.453000", "123317.406000", "123317.406000", "123317.406000", "123317.421000", "123317.421000", "123317.421000", "123317.421000", "123317.421000", "123317.421000", "123317.421000", "123317.421000", "123317.437000", "123317.437000", "123317.437000", "123317.437000", "123317.437000", "123317.437000", "123317.437000", "123317.453000", "123317.453000", "123337.406000", "123337.406000", "123337.406000", "123337.421000", "123337.421000", "123337.421000", "123337.421000", "123337.421000", "123337.421000", "123337.421000", "123337.421000", "123337.437000", "123337.437000", "123337.437000", "123337.437000", "123337.437000", "123337.437000", "123337.437000", "123337.453000", "123337.453000", "123357.406000", "123357.406000", "123357.406000", "123357.421000", "123357.421000", "123357.421000", "123357.421000", "123357.421000", "123357.421000", "123357.421000", "123357.421000", "123357.437000", "123357.437000", "123357.437000", "123357.437000", "123357.437000", "123357.437000", "123357.437000", "123357.453000", "123357.453000", "123417.406000", "123417.406000", "123417.406000", "123417.421000", "123417.421000", "123417.421000", "123417.421000", "123417.421000", "123417.421000", "123417.421000", "123417.437000", "123417.437000", "123417.437000", "123417.437000", "123417.437000", "123417.437000", "123417.437000", "123417.453000", "123417.453000", "123417.453000", "123436.140000", "123436.140000", "123436.140000", "123436.140000", "123436.140000", "123436.140000", "123436.156000", "123436.156000", "123436.156000", "123436.156000", "123436.156000", "123436.156000", "123436.156000", "123436.171000"],
      "InstanceNumber": [1, 2, 3, 4, 5, 6, 7, 8, 9, 10, 11, 12, 13, 14, 15, 16, 17, 18, 19, 20, 21, 22, 23, 24, 25, 26, 27, 28, 29, 30, 31, 32, 33, 34, 35, 36, 37, 38, 39, 40, 41, 42, 43, 44, 45, 46, 47, 48, 49, 50, 51, 52, 53, 54, 55, 56, 57, 58, 59, 60, 61, 62, 63, 64, 65, 66, 67, 68, 69, 70, 71, 72, 73, 74, 75, 76, 77, 78, 79, 80, 81, 82, 83, 84, 85, 86, 87, 88, 89, 90, 91, 92, 93, 94, 95, 96, 97, 98, 99, 100, 101, 102, 103, 104, 105, 106, 107, 108, 109, 110, 111, 112, 113, 114, 115, 116, 117, 118, 119, 120, 121, 122, 123, 124, 125, 126, 127, 128, 129, 130, 131, 132, 133, 134, 135, 136, 137, 138, 139, 140, 141, 142, 143, 144, 145, 146, 147, 148, 149, 150, 151, 152, 153, 154, 155, 156, 157, 158, 159, 160, 161, 162, 163, 164, 165, 166, 167, 168, 169, 170, 171, 172, 173, 174, 175, 176, 177, 178, 179, 180, 181, 182, 183, 184, 185, 186, 187, 188, 189, 190, 191, 192, 193, 194, 195, 196, 197, 198, 199, 200, 201, 202, 203, 204, 205, 206, 207, 208, 209, 210, 211, 212, 213, 214, 215, 216, 217, 218, 219, 220, 221, 222, 223, 224, 225, 226, 227, 228, 229, 230, 231, 232, 233, 234, 235, 236, 237, 238, 239, 240, 241, 242, 243, 244, 245, 246, 247, 248, 249, 250, 251, 252, 253, 254, 255, 256, 257, 258, 259, 260, 261, 262, 263, 264, 265, 266, 267, 268, 269, 270, 271, 272, 273, 274, 275, 276, 277, 278, 279, 280, 281, 282, 283, 284, 285, 286, 287, 288, 289, 290, 291, 292, 293, 294, 295, 296, 297, 298, 299, 300, 301, 302, 303, 304, 305, 306, 307, 308, 309, 310, 311, 312, 313, 314, 315, 316, 317, 318, 319, 320, 321, 322, 323, 324, 325, 326, 327, 328, 329, 330],
      "LargestImagePixelValue": [1832, 1815, 1858, 1819, 1805, 1818, 1809, 1797, 1794, 1789, 1796, 1792, 1790, 1791, 1795, 1780, 1769, 1782, 1808, 1791, 1782, 1818, 1799, 1817, 1806, 1784, 1798, 1762, 1796, 1802, 1809, 1784, 1785, 1785, 1792, 1814, 1800, 1815, 1801, 1808, 1795, 1801, 1841, 1814, 1822, 1821, 1793, 1819, 1820, 1812, 1871, 1795, 1787, 1784, 1782, 1789, 1788, 1769, 1779, 1781, 1812, 1820, 1775, 1796, 1802, 1809, 1827, 1836, 1831, 1850, 1828, 1871, 1821, 1805, 1825, 1823, 1771, 1814, 1790, 1829, 1803, 1829, 1837, 1808, 1797, 1811, 1804, 1801, 1805, 1823, 1831, 1833, 1823, 1796, 1792, 1831, 1818, 1819, 1831, 1787, 1797, 1841, 1786, 1811, 1819, 1851, 1853, 1876, 1890, 1854, 1835, 1818, 1849, 1816, 1857, 1802, 1829, 1796, 1874, 1859, 1855, 1822, 1825, 1879, 1862, 1836, 1814, 1841, 1847, 1878, 1847, 1852, 1813, 1839, 1826, 1824, 1859, 1822, 1811, 1864, 1835, 1859, 1915, 1952, 1921, 1959, 1993, 1995, 1940, 1962, 1912, 2007, 1961, 2001, 1980, 2043, 2030, 1963, 1953, 1978, 1928, 1962, 1988, 1961, 2002, 2059, 1997, 1991, 2090, 2010, 2083, 1953, 2032, 1995, 2026, 2044, 2003, 1991, 1996, 2056, 2001, 2025, 1998, 1947, 2024, 2074, 2015, 2000, 1968, 2035, 1994, 2043, 2011, 1947, 1963, 2052, 2053, 2028, 1990, 1970, 1938, 1931, 2009, 1992, 1997, 1979, 2011, 1984, 1961, 2025, 1969, 2037, 1970, 1889, 1971, 1988, 1987, 1978, 1963, 2062, 2036, 1988, 1996, 1951, 1921, 1961, 1971, 1955, 1971, 1946, 1952, 1968, 1994, 1968, 1982, 1973, 1976, 2005, 1954, 1944, 1952, 1952, 2025, 1937, 1976, 1984, 1998, 1955, 1957, 1970, 1935, 1977, 1966, 1931, 1931, 1961, 1973, 2093, 1990, 1989, 1970, 1989, 1951, 1956, 1943, 1931, 1995, 2060, 1956, 1956, 1952, 1938, 1976, 1955, 1955, 1976, 1985, 1963, 1989, 2018, 1999, 1959, 1941, 1943, 1893, 1889, 1844, 1866, 1902, 1878, 1895, 1905, 1861, 1842, 1897, 1843, 1871, 1842, 1864, 1857, 1833, 1861, 1886, 1868, 1857, 1849, 1869, 1857, 1811, 1858, 1818, 1853, 1846, 1808, 1848, 1846, 1836, 1825, 1840, 1832, 1845, 1835, 1866, 1852, 1837, 1890, 1869, 1845, 1828, 1883],
      "WindowCenter": [423.0, 423.0, 423.0, 422.0, 422.0, 422.0, 420.0, 420.0, 420.0, 419.0, 419.0, 419.0, 419.0, 420.0, 420.0, 420.0, 419.0, 419.0, 420.0, 420.0, 421.0, 423.0, 423.0, 423.0, 422.0, 421.0, 420.0, 420.0, 420.0, 420.0, 420.0, 419.0, 419.0, 420.0, 422.0, 422.0, 420.0, 420.0, 420.0, 420.0, 421.0, 422.0, 423.0, 423.0, 422.0, 422.0, 421.0, 422.0, 423.0, 423.0, 424.0, 422.0, 420.0, 420.0, 418.0, 418.0, 418.0, 419.0, 420.0, 420.0, 421.0, 421.0, 420.0, 422.0, 422.0, 422.0, 424.0, 424.0, 425.0, 426.0, 424.0, 424.0, 422.0, 420.0, 420.0, 419.0, 419.0, 420.0, 420.0, 421.0, 422.0, 422.0, 423.0, 421.0, 420.0, 420.0, 420.0, 420.0, 421.0, 422.0, 423.0, 423.0, 421.0, 420.0, 418.0, 419.0, 419.0, 419.0, 420.0, 419.0, 420.0, 421.0, 420.0, 421.0, 422.0, 422.0, 422.0, 423.0, 423.0, 422.0, 422.0, 421.0, 422.0, 421.0, 421.0, 421.0, 421.0, 421.0, 422.0, 422.0, 423.0, 423.0, 423.0, 424.0, 423.0, 422.0, 422.0, 424.0, 424.0, 425.0, 425.0, 424.0, 423.0, 422.0, 422.0, 421.0, 422.0, 422.0, 421.0, 422.0, 421.0, 420.0, 422.0, 422.0, 421.0, 422.0, 422.0, 422.0, 421.0, 421.0, 422.0, 423.0, 422.0, 423.0, 423.0, 423.0, 422.0, 422.0, 422.0, 421.0, 421.0, 422.0, 424.0, 423.0, 424.0, 426.0, 426.0, 425.0, 426.0, 424.0, 424.0, 423.0, 425.0, 424.0, 424.0, 423.0, 423.0, 422.0, 421.0, 422.0, 422.0, 422.0, 423.0, 423.0, 424.0, 425.0, 424.0, 423.0, 422.0, 423.0, 423.0, 423.0, 423.0, 422.0, 421.0, 422.0, 422.0, 422.0, 421.0, 421.0, 421.0, 422.0, 422.0, 422.0, 423.0, 422.0, 423.0, 424.0, 424.0, 426.0, 424.0, 425.0, 424.0, 422.0, 423.0, 423.0, 423.0, 423.0, 422.0, 423.0, 422.0, 421.0, 420.0, 421.0, 421.0, 421.0, 422.0, 422.0, 422.0, 422.0, 422.0, 423.0, 424.0, 423.0, 423.0, 424.0, 424.0, 423.0, 423.0, 423.0, 423.0, 423.0, 423.0, 422.0, 422.0, 421.0, 421.0, 421.0, 421.0, 421.0, 421.0, 421.0, 421.0, 421.0, 422.0, 422.0, 423.0, 425.0, 425.0, 425.0, 424.0, 424.0, 422.0, 421.0, 421.0, 420.0, 421.0, 422.0, 421.0, 421.0, 422.0, 421.0, 423.0, 424.0, 423.0, 423.0, 424.0, 423.0, 424.0, 425.0, 423.0, 423.0, 422.0, 422.0, 421.0, 420.0, 419.0, 420.0, 421.0, 420.0, 421.0, 420.0, 419.0, 419.0, 420.0, 419.0, 421.0, 421.0, 421.0, 421.0, 419.0, 420.0, 420.0, 420.0, 421.0, 420.0, 420.0, 419.0, 419.0, 419.0, 419.0, 419.0, 419.0, 420.0, 421.0, 420.0, 420.0, 420.0, 420.0, 420.0, 421.0, 422.0, 422.0, 421.0, 420.0, 420.0, 419.0, 418.0, 419.0, 420.0],
