{
  "AcquisitionMatrixPE": 104,
  "AcquisitionNumber": 1,
  "AcquisitionTime": "12:48:28.567500",
  "BandwidthPerPixelPhaseEncode": 43.054,
  "BaseResolution": 104,
  "CoilString": "C:E1_2",
  "ConversionSoftware": "dcm2niix",
  "ConversionSoftwareVersion": "v1.0.20191031",
  "DerivedVendorReportedEchoSpacing": 0.000669999,
  "DeviceSerialNumber": "18932",
  "DwellTime": 2.8e-06,
  "EchoTime": 0.02,
  "EffectiveEchoSpacing": 0.000223333,
  "FlipAngle": 30,
  "ImageComments": "Unaliased_MB2_PE2",
  "ImageOrientationPatientDICOM": [1, 0, 0, 0, 0.992966, -0.118404],
  "ImageType": [
    "ORIGINAL",
    "PRIMARY",
    "M",
    "MB",
    "ND",
    "MOSAIC"
],
  "ImagingFrequency": 297.229,
  "InPlanePhaseEncodingDirectionDICOM": "COL",
  "InstitutionAddress": "Richmond_Street_North_1151_London_409EF2_Ontario_CA_N6A_5B7",
  "InstitutionName": "Robarts_Reserch_Institute",
  "InstitutionalDepartmentName": "Department",
  "MRAcquisitionType": "2D",
  "MagneticFieldStrength": 6.98,
  "Manufacturer": "Siemens",
  "ManufacturersModelName": "Investigational_Device_7T",
  "Modality": "MR",
  "MultibandAccelerationFactor": 2,
  "ParallelReductionFactorInPlane": 3,
  "PartialFourier": 0.875,
  "PatientPosition": "HFS",
  "PercentPhaseFOV": 100,
  "PhaseEncodingDirection": "j-",
  "PhaseEncodingSteps": 91,
  "PhaseResolution": 1,
  "PixelBandwidth": 1717,
  "ProcedureStepDescription": "Diedrichsen_SeqRep4",
  "ProtocolName": "mbep2d_bold_mb2_p3_AP_2iso",
  "PulseSequenceDetails": "%CustomerSeq%_cmrr_mbep2d_bold",
  "ReceiveCoilName": "CFMM_8Tx32Rx",
  "ReconMatrixPE": 104,
  "RefLinesPE": 36,
  "RepetitionTime": 1,
  "ScanOptions": "PFP_FS",
  "ScanningSequence": "EP",
  "SequenceName": "epfid2d1_104",
  "SequenceVariant": "SK_SS",
  "SeriesDescription": "mbep2d_bold_mb2_p3_AP_2iso",
  "SeriesNumber": 21,
  "ShimSetting": [5, 2050, 86, 1698, -41, 218, -27, -187],
  "SliceThickness": 2,
  "SliceTiming": [0, 0.2275, 0.455, 0.685, 0.9125, 0.1375, 0.365, 0.5925, 0.82, 0.045, 0.2725, 0.5025, 0.73, 0.9575, 0.1825, 0.41, 0.6375, 0.8675, 0.09, 0.32, 0.5475, 0.775, 0, 0.2275, 0.455, 0.685, 0.9125, 0.1375, 0.365, 0.5925, 0.82, 0.045, 0.2725, 0.5025, 0.73, 0.9575, 0.1825, 0.41, 0.6375, 0.8675, 0.09, 0.32, 0.5475, 0.775],
  "SoftwareVersions": "syngo_MR_B17",
  "SpacingBetweenSlices": 2,
  "StationName": "MASTER",
  "TaskName": "dsp",
  "TotalReadoutTime": 0.0230033,
  "TxRefAmp": 120,
  "dcmmeta_affine": [
    [-2.0, 0.0, 0.0, 106.1791763305664],
    [0.0, 1.9859310388565063, -0.2368079274892807, -112.17391204833984],
    [0.0, 0.2368079274892807, 1.9859310388565063, -31.579612731933594],
    [0.0, 0.0, 0.0, 1.0]
],
  "dcmmeta_reorient_transform": [
    [0.0, -1.0, 0.0, 103.0],
    [1.0, 0.0, 0.0, 0.0],
    [0.0, 0.0, 1.0, 0.0],
    [0.0, 0.0, 0.0, 1.0]
],
  "dcmmeta_shape": [104, 104, 44, 330],
  "dcmmeta_slice_dim": 2,
  "dcmmeta_version": 0.6,
  "global": {
    "const": {
      "AcquisitionMatrix": [104, 0, 0, 104],
      "AngioFlag": "N",
      "BitsAllocated": 16,
      "BitsStored": 12,
      "Columns": 728,
      "EchoNumbers": 1,
      "EchoTime": 20.0,
      "EchoTrainLength": 1,
      "FlipAngle": 30.0,
      "HighBit": 11,
      "ImageOrientationPatient": [1.0, 0.0, 0.0, 0.0, 0.99296550822323, -0.1184039673279],
      "ImagePositionPatient": [-730.1791768074, -711.98746294641, 66.695679233359],
      "ImageType": [
        "ORIGINAL",
        "PRIMARY",
        "M",
        "MB",
        "ND",
        "MOSAIC"
],
      "ImagedNucleus": "1H",
      "ImagingFrequency": 297.228992,
      "InPlanePhaseEncodingDirection": "COL",
      "MRAcquisitionType": "2D",
      "MagneticFieldStrength": 6.98,
      "Manufacturer": "SIEMENS",
      "ManufacturerModelName": "Investigational_Device_7T",
      "Modality": "MR",
      "NumberOfAverages": 1.0,
      "NumberOfPhaseEncodingSteps": 91,
      "PercentPhaseFieldOfView": 100.0,
      "PercentSampling": 100.0,
      "PerformedProcedureStepStartTime": "120509.234000",
      "PhotometricInterpretation": "MONOCHROME2",
      "PixelBandwidth": 1717.0,
      "PixelRepresentation": 0,
      "PixelSpacing": [2.0, 2.0],
      "ProtocolName": "mbep2d_bold_mb2_p3_AP 2iso",
      "RepetitionTime": 1000.0,
      "Rows": 728,
      "SAR": 0.0,
      "SamplesPerPixel": 1,
      "ScanOptions": [
        "PFP",
        "FS"
],
      "ScanningSequence": "EP",
      "SequenceName": "epfid2d1_104",
      "SequenceVariant": [
        "SK",
        "SS"
],
      "SeriesDescription": "mbep2d_bold_mb2_p3_AP 2iso",
      "SeriesNumber": 21,
      "SeriesTime": "124857.437000",
      "SliceLocation": -18.075631274307,
      "SliceThickness": 2.0,
      "SmallestImagePixelValue": 0,
      "SoftwareVersions": "syngo MR B17",
      "SpacingBetweenSlices": 1.9999999835174,
      "SpecificCharacterSet": "ISO_IR 100",
      "StudyID": "1",
      "StudyTime": "120509.171000",
      "TransmitCoilName": "CFMM_8Tx32Rx",
      "VariableFlipAngleFlag": "N",
      "WindowCenterWidthExplanation": "Algo1",
      "dBdt": 0.0},
    "slices": {}
  },
  "time": {
    "samples": {
      "AcquisitionNumber": [1, 2, 3, 4, 5, 6, 7, 8, 9, 10, 11, 12, 13, 14, 15, 16, 17, 18, 19, 20, 21, 22, 23, 24, 25, 26, 27, 28, 29, 30, 31, 32, 33, 34, 35, 36, 37, 38, 39, 40, 41, 42, 43, 44, 45, 46, 47, 48, 49, 50, 51, 52, 53, 54, 55, 56, 57, 58, 59, 60, 61, 62, 63, 64, 65, 66, 67, 68, 69, 70, 71, 72, 73, 74, 75, 76, 77, 78, 79, 80, 81, 82, 83, 84, 85, 86, 87, 88, 89, 90, 91, 92, 93, 94, 95, 96, 97, 98, 99, 100, 101, 102, 103, 104, 105, 106, 107, 108, 109, 110, 111, 112, 113, 114, 115, 116, 117, 118, 119, 120, 121, 122, 123, 124, 125, 126, 127, 128, 129, 130, 131, 132, 133, 134, 135, 136, 137, 138, 139, 140, 141, 142, 143, 144, 145, 146, 147, 148, 149, 150, 151, 152, 153, 154, 155, 156, 157, 158, 159, 160, 161, 162, 163, 164, 165, 166, 167, 168, 169, 170, 171, 172, 173, 174, 175, 176, 177, 178, 179, 180, 181, 182, 183, 184, 185, 186, 187, 188, 189, 190, 191, 192, 193, 194, 195, 196, 197, 198, 199, 200, 201, 202, 203, 204, 205, 206, 207, 208, 209, 210, 211, 212, 213, 214, 215, 216, 217, 218, 219, 220, 221, 222, 223, 224, 225, 226, 227, 228, 229, 230, 231, 232, 233, 234, 235, 236, 237, 238, 239, 240, 241, 242, 243, 244, 245, 246, 247, 248, 249, 250, 251, 252, 253, 254, 255, 256, 257, 258, 259, 260, 261, 262, 263, 264, 265, 266, 267, 268, 269, 270, 271, 272, 273, 274, 275, 276, 277, 278, 279, 280, 281, 282, 283, 284, 285, 286, 287, 288, 289, 290, 291, 292, 293, 294, 295, 296, 297, 298, 299, 300, 301, 302, 303, 304, 305, 306, 307, 308, 309, 310, 311, 312, 313, 314, 315, 316, 317, 318, 319, 320, 321, 322, 323, 324, 325, 326, 327, 328, 329, 330],
      "AcquisitionTime": ["124828.567500", "124829.572500", "124830.575000", "124831.580000", "124832.582500", "124833.587500", "124834.592500", "124835.595000", "124836.600000", "124837.602500", "124838.607500", "124839.612500", "124840.615000", "124841.620000", "124842.622500", "124843.627500", "124844.632500", "124845.635000", "124846.640000", "124847.642500", "124848.647500", "124849.652500", "124850.655000", "124851.660000", "124852.665000", "124853.667500", "124854.672500", "124855.675000", "124856.680000", "124857.685000", "124858.687500", "124859.692500", "124900.695000", "124901.700000", "124902.705000", "124903.707500", "124904.712500", "124905.715000", "124906.720000", "124907.725000", "124908.727500", "124909.732500", "124910.735000", "124911.740000", "124912.745000", "124913.747500", "124914.752500", "124915.755000", "124916.760000", "124917.765000", "124918.767500", "124919.772500", "124920.775000", "124921.780000", "124922.785000", "124923.787500", "124924.792500", "124925.797500", "124926.800000", "124927.805000", "124928.807500", "124929.812500", "124930.817500", "124931.820000", "124932.825000", "124933.827500", "124934.832500", "124935.837500", "124936.840000", "124937.845000", "124938.847500", "124939.852500", "124940.857500", "124941.860000", "124942.865000", "124943.867500", "124944.872500", "124945.877500", "124946.880000", "124947.885000", "124948.887500", "124949.892500", "124950.897500", "124951.900000", "124952.905000", "124953.910000", "124954.912500", "124955.917500", "124956.920000", "124957.925000", "124958.930000", "124959.932500", "125000.937500", "125001.940000", "125002.945000", "125003.950000", "125004.952500", "125005.957500", "125006.960000", "125007.965000", "125008.970000", "125009.972500", "125010.977500", "125011.980000", "125012.985000", "125013.990000", "125014.992500", "125015.997500", "125017.000000", "125018.005000", "125019.010000", "125020.012500", "125021.017500", "125022.020000", "125023.025000", "125024.030000", "125025.032500", "125026.037500", "125027.042500", "125028.045000", "125029.050000", "125030.052500", "125031.057500", "125032.062500", "125033.065000", "125034.070000", "125035.072500", "125036.077500", "125037.082500", "125038.085000", "125039.090000", "125040.092500", "125041.097500", "125042.102500", "125043.105000", "125044.110000", "125045.112500", "125046.117500", "125047.122500", "125048.125000", "125049.130000", "125050.132500", "125051.137500", "125052.142500", "125053.145000", "125054.150000", "125055.152500", "125056.157500", "125057.162500", "125058.165000", "125059.170000", "125100.175000", "125101.177500", "125102.182500", "125103.185000", "125104.190000", "125105.195000", "125106.197500", "125107.202500", "125108.205000", "125109.210000", "125110.215000", "125111.217500", "125112.222500", "125113.225000", "125114.230000", "125115.235000", "125116.237500", "125117.242500", "125118.245000", "125119.250000", "125120.255000", "125121.257500", "125122.262500", "125123.265000", "125124.270000", "125125.275000", "125126.277500", "125127.282500", "125128.287500", "125129.290000", "125130.295000", "125131.297500", "125132.302500", "125133.307500", "125134.310000", "125135.315000", "125136.317500", "125137.322500", "125138.327500", "125139.330000", "125140.335000", "125141.337500", "125142.342500", "125143.347500", "125144.350000", "125145.355000", "125146.357500", "125147.362500", "125148.367500", "125149.370000", "125150.375000", "125151.377500", "125152.382500", "125153.387500", "125154.390000", "125155.395000", "125156.397500", "125157.402500", "125158.407500", "125159.410000", "125200.415000", "125201.420000", "125202.422500", "125203.427500", "125204.430000", "125205.435000", "125206.440000", "125207.442500", "125208.447500", "125209.450000", "125210.455000", "125211.460000", "125212.462500", "125213.467500", "125214.470000", "125215.475000", "125216.480000", "125217.482500", "125218.487500", "125219.490000", "125220.495000", "125221.500000", "125222.502500", "125223.507500", "125224.510000", "125225.515000", "125226.520000", "125227.522500", "125228.527500", "125229.532500", "125230.535000", "125231.540000", "125232.542500", "125233.547500", "125234.552500", "125235.555000", "125236.560000", "125237.562500", "125238.567500", "125239.572500", "125240.575000", "125241.580000", "125242.582500", "125243.587500", "125244.592500", "125245.595000", "125246.600000", "125247.602500", "125248.607500", "125249.612500", "125250.615000", "125251.620000", "125252.622500", "125253.627500", "125254.632500", "125255.635000", "125256.640000", "125257.642500", "125258.647500", "125259.652500", "125300.655000", "125301.660000", "125302.665000", "125303.667500", "125304.672500", "125305.675000", "125306.680000", "125307.685000", "125308.687500", "125309.692500", "125310.695000", "125311.700000", "125312.705000", "125313.707500", "125314.712500", "125315.715000", "125316.720000", "125317.725000", "125318.727500", "125319.732500", "125320.735000", "125321.740000", "125322.745000", "125323.747500", "125324.752500", "125325.755000", "125326.760000", "125327.765000", "125328.767500", "125329.772500", "125330.775000", "125331.780000", "125332.785000", "125333.787500", "125334.792500", "125335.797500", "125336.800000", "125337.805000", "125338.807500", "125339.812500", "125340.817500", "125341.820000", "125342.825000", "125343.827500", "125344.832500", "125345.837500", "125346.840000", "125347.845000", "125348.847500", "125349.852500", "125350.857500", "125351.860000", "125352.865000", "125353.867500", "125354.872500", "125355.877500", "125356.880000", "125357.885000", "125358.887500"],
      "ContentTime": ["124857.437000", "124857.453000", "124857.453000", "124857.453000", "124857.453000", "124857.453000", "124857.453000", "124857.453000", "124857.468000", "124857.468000", "124857.468000", "124857.468000", "124857.468000", "124857.468000", "124857.468000", "124857.484000", "124857.484000", "124857.484000", "124857.484000", "124857.484000", "124857.484000", "124857.500000", "124857.500000", "124857.500000", "124857.500000", "124857.515000", "124857.515000", "124857.515000", "124917.406000", "124917.406000", "124917.406000", "124917.421000", "124917.421000", "124917.421000", "124917.421000", "124917.437000", "124917.437000", "124917.437000", "124917.437000", "124917.453000", "124917.453000", "124917.453000", "124917.453000", "124917.453000", "124917.453000", "124917.453000", "124917.468000", "124917.468000", "124937.406000", "124937.421000", "124937.421000", "124937.421000", "124937.421000", "124937.421000", "124937.421000", "124937.437000", "124937.437000", "124937.437000", "124937.437000", "124937.437000", "124937.437000", "124937.453000", "124937.453000", "124937.453000", "124937.453000", "124937.453000", "124937.453000", "124937.453000", "124957.406000", "124957.406000", "124957.406000", "124957.406000", "124957.421000", "124957.421000", "124957.421000", "124957.421000", "124957.437000", "124957.437000", "124957.437000", "124957.437000", "124957.453000", "124957.453000", "124957.453000", "124957.453000", "124957.453000", "124957.453000", "124957.453000", "124957.468000", "125017.406000", "125017.406000", "125017.406000", "125017.421000", "125017.421000", "125017.421000", "125017.421000", "125017.437000", "125017.437000", "125017.437000", "125017.437000", "125017.437000", "125017.437000", "125017.437000", "125017.437000", "125017.453000", "125017.453000", "125017.453000", "125017.453000", "125017.453000", "125037.406000", "125037.406000", "125037.406000", "125037.421000", "125037.421000", "125037.421000", "125037.421000", "125037.421000", "125037.437000", "125037.437000", "125037.437000", "125037.437000", "125037.437000", "125037.437000", "125037.437000", "125037.437000", "125037.453000", "125037.453000", "125037.453000", "125037.453000", "125057.406000", "125057.406000", "125057.406000", "125057.406000", "125057.421000", "125057.421000", "125057.421000", "125057.421000", "125057.421000", "125057.421000", "125057.421000", "125057.437000", "125057.437000", "125057.437000", "125057.437000", "125057.437000", "125057.437000", "125057.437000", "125057.453000", "125057.453000", "125117.406000", "125117.406000", "125117.406000", "125117.421000", "125117.421000", "125117.421000", "125117.421000", "125117.421000", "125117.421000", "125117.421000", "125117.421000", "125117.437000", "125117.437000", "125117.437000", "125117.437000", "125117.453000", "125117.453000", "125117.453000", "125117.453000", "125117.453000", "125137.406000", "125137.406000", "125137.406000", "125137.421000", "125137.421000", "125137.421000", "125137.421000", "125137.421000", "125137.437000", "125137.437000", "125137.437000", "125137.437000", "125137.437000", "125137.437000", "125137.437000", "125137.453000", "125137.453000", "125137.453000", "125137.453000", "125137.453000", "125157.406000", "125157.406000", "125157.406000", "125157.406000", "125157.421000", "125157.421000", "125157.421000", "125157.421000", "125157.421000", "125157.421000", "125157.421000", "125157.437000", "125157.437000", "125157.437000", "125157.437000", "125157.437000", "125157.437000", "125157.437000", "125157.437000", "125157.453000", "125217.406000", "125217.406000", "125217.421000", "125217.421000", "125217.437000", "125217.437000", "125217.437000", "125217.437000", "125217.437000", "125217.437000", "125217.437000", "125217.437000", "125217.453000", "125217.453000", "125217.453000", "125217.468000", "125217.468000", "125217.468000", "125217.468000", "125217.468000", "125237.406000", "125237.406000", "125237.406000", "125237.421000", "125237.421000", "125237.421000", "125237.421000", "125237.421000", "125237.421000", "125237.421000", "125237.421000", "125237.437000", "125237.437000", "125237.437000", "125237.437000", "125237.437000", "125237.437000", "125237.437000", "125237.453000", "125237.453000", "125257.406000", "125257.406000", "125257.406000", "125257.406000", "125257.421000", "125257.421000", "125257.421000", "125257.421000", "125257.421000", "125257.421000", "125257.421000", "125257.437000", "125257.437000", "125257.437000", "125257.437000", "125257.437000", "125257.437000", "125257.437000", "125257.453000", "125257.453000", "125317.406000", "125317.406000", "125317.406000", "125317.421000", "125317.421000", "125317.421000", "125317.421000", "125317.421000", "125317.437000", "125317.437000", "125317.437000", "125317.437000", "125317.437000", "125317.437000", "125317.437000", "125317.437000", "125317.453000", "125317.453000", "125317.453000", "125317.453000", "125337.406000", "125337.406000", "125337.406000", "125337.421000", "125337.421000", "125337.421000", "125337.421000", "125337.421000", "125337.421000", "125337.437000", "125337.437000", "125337.437000", "125337.437000", "125337.437000", "125337.437000", "125337.437000", "125337.453000", "125337.453000", "125337.453000", "125337.453000", "125357.406000", "125357.406000", "125357.406000", "125357.406000", "125357.421000", "125357.421000", "125357.421000", "125357.421000", "125357.421000", "125357.437000", "125357.437000", "125357.437000", "125357.437000", "125357.437000", "125357.437000", "125357.437000", "125357.453000", "125357.453000", "125357.453000", "125357.453000", "125404.296000", "125404.296000"],
      "InstanceCreationTime": ["124857.437000", "124857.453000", "124857.453000", "124857.453000", "124857.453000", "124857.453000", "124857.453000", "124857.453000", "124857.468000", "124857.468000", "124857.468000", "124857.468000", "124857.468000", "124857.468000", "124857.468000", "124857.484000", "124857.484000", "124857.484000", "124857.484000", "124857.484000", "124857.484000", "124857.500000", "124857.500000", "124857.500000", "124857.500000", "124857.515000", "124857.515000", "124857.515000", "124917.406000", "124917.406000", "124917.406000", "124917.421000", "124917.421000", "124917.421000", "124917.421000", "124917.437000", "124917.437000", "124917.437000", "124917.437000", "124917.453000", "124917.453000", "124917.453000", "124917.453000", "124917.453000", "124917.453000", "124917.453000", "124917.468000", "124917.468000", "124937.406000", "124937.421000", "124937.421000", "124937.421000", "124937.421000", "124937.421000", "124937.421000", "124937.437000", "124937.437000", "124937.437000", "124937.437000", "124937.437000", "124937.437000", "124937.453000", "124937.453000", "124937.453000", "124937.453000", "124937.453000", "124937.453000", "124937.453000", "124957.406000", "124957.406000", "124957.406000", "124957.406000", "124957.421000", "124957.421000", "124957.421000", "124957.421000", "124957.437000", "124957.437000", "124957.437000", "124957.437000", "124957.453000", "124957.453000", "124957.453000", "124957.453000", "124957.453000", "124957.453000", "124957.453000", "124957.468000", "125017.406000", "125017.406000", "125017.406000", "125017.421000", "125017.421000", "125017.421000", "125017.421000", "125017.437000", "125017.437000", "125017.437000", "125017.437000", "125017.437000", "125017.437000", "125017.437000", "125017.437000", "125017.453000", "125017.453000", "125017.453000", "125017.453000", "125017.453000", "125037.406000", "125037.406000", "125037.406000", "125037.421000", "125037.421000", "125037.421000", "125037.421000", "125037.421000", "125037.437000", "125037.437000", "125037.437000", "125037.437000", "125037.437000", "125037.437000", "125037.437000", "125037.437000", "125037.453000", "125037.453000", "125037.453000", "125037.453000", "125057.406000", "125057.406000", "125057.406000", "125057.406000", "125057.421000", "125057.421000", "125057.421000", "125057.421000", "125057.421000", "125057.421000", "125057.421000", "125057.437000", "125057.437000", "125057.437000", "125057.437000", "125057.437000", "125057.437000", "125057.437000", "125057.453000", "125057.453000", "125117.406000", "125117.406000", "125117.406000", "125117.421000", "125117.421000", "125117.421000", "125117.421000", "125117.421000", "125117.421000", "125117.421000", "125117.421000", "125117.437000", "125117.437000", "125117.437000", "125117.437000", "125117.453000", "125117.453000", "125117.453000", "125117.453000", "125117.453000", "125137.406000", "125137.406000", "125137.406000", "125137.421000", "125137.421000", "125137.421000", "125137.421000", "125137.421000", "125137.437000", "125137.437000", "125137.437000", "125137.437000", "125137.437000", "125137.437000", "125137.437000", "125137.453000", "125137.453000", "125137.453000", "125137.453000", "125137.453000", "125157.406000", "125157.406000", "125157.406000", "125157.406000", "125157.421000", "125157.421000", "125157.421000", "125157.421000", "125157.421000", "125157.421000", "125157.421000", "125157.437000", "125157.437000", "125157.437000", "125157.437000", "125157.437000", "125157.437000", "125157.437000", "125157.437000", "125157.453000", "125217.406000", "125217.406000", "125217.421000", "125217.421000", "125217.437000", "125217.437000", "125217.437000", "125217.437000", "125217.437000", "125217.437000", "125217.437000", "125217.437000", "125217.453000", "125217.453000", "125217.453000", "125217.468000", "125217.468000", "125217.468000", "125217.468000", "125217.468000", "125237.406000", "125237.406000", "125237.406000", "125237.421000", "125237.421000", "125237.421000", "125237.421000", "125237.421000", "125237.421000", "125237.421000", "125237.421000", "125237.437000", "125237.437000", "125237.437000", "125237.437000", "125237.437000", "125237.437000", "125237.437000", "125237.453000", "125237.453000", "125257.406000", "125257.406000", "125257.406000", "125257.406000", "125257.421000", "125257.421000", "125257.421000", "125257.421000", "125257.421000", "125257.421000", "125257.421000", "125257.437000", "125257.437000", "125257.437000", "125257.437000", "125257.437000", "125257.437000", "125257.437000", "125257.453000", "125257.453000", "125317.406000", "125317.406000", "125317.406000", "125317.421000", "125317.421000", "125317.421000", "125317.421000", "125317.421000", "125317.437000", "125317.437000", "125317.437000", "125317.437000", "125317.437000", "125317.437000", "125317.437000", "125317.437000", "125317.453000", "125317.453000", "125317.453000", "125317.453000", "125337.406000", "125337.406000", "125337.406000", "125337.421000", "125337.421000", "125337.421000", "125337.421000", "125337.421000", "125337.421000", "125337.437000", "125337.437000", "125337.437000", "125337.437000", "125337.437000", "125337.437000", "125337.437000", "125337.453000", "125337.453000", "125337.453000", "125337.453000", "125357.406000", "125357.406000", "125357.406000", "125357.406000", "125357.421000", "125357.421000", "125357.421000", "125357.421000", "125357.421000", "125357.437000", "125357.437000", "125357.437000", "125357.437000", "125357.437000", "125357.437000", "125357.437000", "125357.453000", "125357.453000", "125357.453000", "125357.453000", "125404.296000", "125404.296000"],
      "InstanceNumber": [1, 2, 3, 4, 5, 6, 7, 8, 9, 10, 11, 12, 13, 14, 15, 16, 17, 18, 19, 20, 21, 22, 23, 24, 25, 26, 27, 28, 29, 30, 31, 32, 33, 34, 35, 36, 37, 38, 39, 40, 41, 42, 43, 44, 45, 46, 47, 48, 49, 50, 51, 52, 53, 54, 55, 56, 57, 58, 59, 60, 61, 62, 63, 64, 65, 66, 67, 68, 69, 70, 71, 72, 73, 74, 75, 76, 77, 78, 79, 80, 81, 82, 83, 84, 85, 86, 87, 88, 89, 90, 91, 92, 93, 94, 95, 96, 97, 98, 99, 100, 101, 102, 103, 104, 105, 106, 107, 108, 109, 110, 111, 112, 113, 114, 115, 116, 117, 118, 119, 120, 121, 122, 123, 124, 125, 126, 127, 128, 129, 130, 131, 132, 133, 134, 135, 136, 137, 138, 139, 140, 141, 142, 143, 144, 145, 146, 147, 148, 149, 150, 151, 152, 153, 154, 155, 156, 157, 158, 159, 160, 161, 162, 163, 164, 165, 166, 167, 168, 169, 170, 171, 172, 173, 174, 175, 176, 177, 178, 179, 180, 181, 182, 183, 184, 185, 186, 187, 188, 189, 190, 191, 192, 193, 194, 195, 196, 197, 198, 199, 200, 201, 202, 203, 204, 205, 206, 207, 208, 209, 210, 211, 212, 213, 214, 215, 216, 217, 218, 219, 220, 221, 222, 223, 224, 225, 226, 227, 228, 229, 230, 231, 232, 233, 234, 235, 236, 237, 238, 239, 240, 241, 242, 243, 244, 245, 246, 247, 248, 249, 250, 251, 252, 253, 254, 255, 256, 257, 258, 259, 260, 261, 262, 263, 264, 265, 266, 267, 268, 269, 270, 271, 272, 273, 274, 275, 276, 277, 278, 279, 280, 281, 282, 283, 284, 285, 286, 287, 288, 289, 290, 291, 292, 293, 294, 295, 296, 297, 298, 299, 300, 301, 302, 303, 304, 305, 306, 307, 308, 309, 310, 311, 312, 313, 314, 315, 316, 317, 318, 319, 320, 321, 322, 323, 324, 325, 326, 327, 328, 329, 330],
      "LargestImagePixelValue": [2128, 2103, 2117, 2135, 2156, 2077, 2126, 2098, 2102, 2126, 2089, 2071, 2126, 2062, 2066, 2043, 2047, 2072, 2073, 1998, 2042, 2089, 2089, 2068, 2085, 2037, 2057, 2092, 2071, 2051, 2014, 1996, 2076, 2088, 2065, 2003, 2087, 2076, 2044, 2053, 2030, 2106, 2112, 2047, 2055, 2060, 2043, 2070, 2044, 2042, 2027, 2107, 2085, 2047, 2092, 2061, 2036, 2090, 2059, 2066, 2041, 2106, 2060, 2061, 2052, 2075, 2055, 2078, 2070, 2064, 2030, 2056, 2020, 2016, 2079, 2057, 2058, 2093, 2076, 2128, 2067, 2064, 2119, 2094, 2070, 2011, 2000, 1872, 1927, 1937, 1864, 1930, 1987, 1942, 2027, 1985, 2020, 2123, 2094, 2110, 2025, 2001, 2060, 2053, 1972, 1937, 2010, 2021, 1966, 1945, 1981, 1964, 1946, 1929, 1923, 1960, 1995, 1969, 1971, 1962, 1946, 1964, 2002, 1907, 1917, 1905, 1940, 1941, 1885, 1960, 1939, 1914, 1964, 1994, 2010, 1943, 1901, 1985, 1964, 1937, 1942, 1933, 1934, 1889, 1910, 1912, 1883, 1881, 1921, 1884, 1873, 1930, 1919, 1973, 1915, 1890, 1929, 1902, 1879, 1890, 1880, 1883, 1873, 1910, 1865, 1899, 1916, 1873, 1871, 1903, 1892, 1864, 1909, 1870, 1920, 1912, 1959, 1956, 1972, 1971, 1934, 1984, 1972, 1909, 1877, 1889, 1870, 1915, 1858, 1862, 1896, 1880, 1876, 1956, 1885, 1890, 1890, 1874, 1896, 1887, 1869, 1907, 1889, 1871, 1888, 1868, 1887, 1873, 1884, 1888, 1893, 1904, 1897, 1890, 1892, 1896, 1918, 1878, 1907, 1875, 1881, 1876, 1897, 1886, 1918, 1903, 1899, 1929, 1891, 1881, 1877, 1890, 1862, 1885, 1869, 1901, 1977, 1945, 1943, 1899, 1881, 1900, 1898, 1875, 1913, 1952, 1907, 1905, 1950, 2037, 2038, 1977, 1968, 1991, 2023, 2025, 2015, 1971, 2039, 2013, 2001, 1941, 1980, 1931, 1907, 1973, 1930, 1923, 1943, 1947, 1963, 1928, 1954, 1991, 2082, 2025, 1956, 1962, 1906, 1874, 1934, 1920, 1953, 1971, 1946, 1909, 1923, 1961, 1953, 1966, 1961, 1919, 1952, 1978, 1955, 1942, 1921, 1945, 1964, 1941, 1959, 1924, 1943, 1937, 1917, 1948, 1953, 2026, 2006, 2008, 1940, 1962, 1954, 1939, 1999, 1999, 1989, 1937, 2036, 2000, 2023, 1961, 1923, 1946, 1979, 1929, 1931, 2001, 2001, 1972],
      "WindowCenter": [434.0, 433.0, 432.0, 432.0, 431.0, 429.0, 430.0, 430.0, 429.0, 428.0, 428.0, 429.0, 428.0, 429.0, 430.0, 430.0, 428.0, 429.0, 430.0, 430.0, 429.0, 430.0, 431.0, 431.0, 431.0, 431.0, 430.0, 429.0, 430.0, 430.0, 430.0, 430.0, 431.0, 432.0, 431.0, 430.0, 430.0, 430.0, 429.0, 429.0, 429.0, 431.0, 432.0, 431.0, 431.0, 431.0, 431.0, 429.0, 429.0, 430.0, 431.0, 431.0, 432.0, 432.0, 431.0, 431.0, 430.0, 430.0, 430.0, 431.0, 431.0, 432.0, 431.0, 431.0, 431.0, 430.0, 430.0, 430.0, 430.0, 430.0, 431.0, 431.0, 429.0, 430.0, 430.0, 430.0, 431.0, 431.0, 432.0, 433.0, 431.0, 431.0, 430.0, 431.0, 431.0, 431.0, 430.0, 429.0, 429.0, 428.0, 428.0, 428.0, 428.0, 428.0, 429.0, 430.0, 431.0, 432.0, 433.0, 431.0, 431.0, 429.0, 429.0, 428.0, 428.0, 428.0, 430.0, 430.0, 429.0, 428.0, 428.0, 429.0, 429.0, 428.0, 428.0, 427.0, 427.0, 427.0, 428.0, 428.0, 428.0, 428.0, 430.0, 428.0, 429.0, 429.0, 429.0, 429.0, 428.0, 428.0, 428.0, 429.0, 430.0, 431.0, 432.0, 431.0, 431.0, 431.0, 429.0, 429.0, 429.0, 428.0, 428.0, 428.0, 427.0, 428.0, 428.0, 428.0, 428.0, 428.0, 428.0, 428.0, 428.0, 429.0, 430.0, 430.0, 431.0, 430.0, 430.0, 428.0, 428.0, 428.0, 428.0, 428.0, 429.0, 429.0, 428.0, 428.0, 428.0, 427.0, 428.0, 428.0, 428.0, 427.0, 428.0, 428.0, 429.0, 430.0, 431.0, 430.0, 430.0, 429.0, 429.0, 429.0, 428.0, 428.0, 429.0, 429.0, 429.0, 430.0, 430.0, 429.0, 429.0, 430.0, 429.0, 429.0, 430.0, 430.0, 429.0, 428.0, 428.0, 427.0, 427.0, 427.0, 428.0, 427.0, 428.0, 428.0, 429.0, 429.0, 430.0, 429.0, 430.0, 431.0, 431.0, 430.0, 431.0, 430.0, 429.0, 429.0, 428.0, 429.0, 430.0, 429.0, 429.0, 429.0, 428.0, 428.0, 427.0, 427.0, 427.0, 428.0, 427.0, 428.0, 429.0, 429.0, 431.0, 431.0, 430.0, 430.0, 430.0, 428.0, 428.0, 428.0, 429.0, 429.0, 429.0, 429.0, 430.0, 430.0, 430.0, 430.0, 430.0, 431.0, 430.0, 430.0, 430.0, 430.0, 429.0, 430.0, 430.0, 429.0, 429.0, 429.0, 429.0, 429.0, 429.0, 430.0, 431.0, 431.0, 431.0, 429.0, 429.0, 429.0, 430.0, 431.0, 431.0, 429.0, 429.0, 429.0, 428.0, 428.0, 429.0, 430.0, 431.0, 431.0, 431.0, 431.0, 431.0, 430.0, 430.0, 430.0, 430.0, 429.0, 429.0, 429.0, 429.0, 428.0, 429.0, 429.0, 429.0, 429.0, 430.0, 430.0, 430.0, 430.0, 429.0, 429.0, 430.0, 430.0, 431.0, 431.0, 430.0, 429.0, 429.0, 428.0, 429.0, 429.0, 430.0, 431.0, 431.0, 430.0, 429.0, 428.0, 428.0, 428.0, 429.0, 429.0, 429.0, 430.0],
