{
  "AcquisitionMatrixPE": 104,
  "AcquisitionNumber": 1,
  "AcquisitionTime": "12:35:29.530000",
  "BandwidthPerPixelPhaseEncode": 43.054,
  "BaseResolution": 104,
  "CoilString": "C:E1_2",
  "ConversionSoftware": "dcm2niix",
  "ConversionSoftwareVersion": "v1.0.20191031",
  "DerivedVendorReportedEchoSpacing": 0.000669999,
  "DeviceSerialNumber": "18932",
  "DwellTime": 2.8e-06,
  "EchoTime": 0.02,
  "EffectiveEchoSpacing": 0.000223333,
  "FlipAngle": 30,
  "ImageComments": "Unaliased_MB2_PE2",
  "ImageOrientationPatientDICOM": [1, 0, 0, 0, 0.992966, -0.118404],
  "ImageType": [
    "ORIGINAL",
    "PRIMARY",
    "M",
    "MB",
    "ND",
    "MOSAIC"
],
  "ImagingFrequency": 297.229,
  "InPlanePhaseEncodingDirectionDICOM": "COL",
  "InstitutionAddress": "Richmond_Street_North_1151_London_409EF2_Ontario_CA_N6A_5B7",
  "InstitutionName": "Robarts_Reserch_Institute",
  "InstitutionalDepartmentName": "Department",
  "MRAcquisitionType": "2D",
  "MagneticFieldStrength": 6.98,
  "Manufacturer": "Siemens",
  "ManufacturersModelName": "Investigational_Device_7T",
  "Modality": "MR",
  "MultibandAccelerationFactor": 2,
  "ParallelReductionFactorInPlane": 3,
  "PartialFourier": 0.875,
  "PatientPosition": "HFS",
  "PercentPhaseFOV": 100,
  "PhaseEncodingDirection": "j-",
  "PhaseEncodingSteps": 91,
  "PhaseResolution": 1,
  "PixelBandwidth": 1717,
  "ProcedureStepDescription": "Diedrichsen_SeqRep4",
  "ProtocolName": "mbep2d_bold_mb2_p3_AP_2iso",
  "PulseSequenceDetails": "%CustomerSeq%_cmrr_mbep2d_bold",
  "ReceiveCoilName": "CFMM_8Tx32Rx",
  "ReconMatrixPE": 104,
  "RefLinesPE": 36,
  "RepetitionTime": 1,
  "ScanOptions": "PFP_FS",
  "ScanningSequence": "EP",
  "SequenceName": "epfid2d1_104",
  "SequenceVariant": "SK_SS",
  "SeriesDescription": "mbep2d_bold_mb2_p3_AP_2iso",
  "SeriesNumber": 17,
  "ShimSetting": [5, 2050, 86, 1698, -41, 218, -27, -187],
  "SliceThickness": 2,
  "SliceTiming": [0, 0.2275, 0.455, 0.6825, 0.91, 0.135, 0.365, 0.5925, 0.82, 0.045, 0.2725, 0.5, 0.73, 0.9575, 0.1825, 0.41, 0.6375, 0.865, 0.09, 0.3175, 0.5475, 0.775, 0, 0.2275, 0.455, 0.6825, 0.91, 0.135, 0.365, 0.5925, 0.82, 0.045, 0.2725, 0.5, 0.73, 0.9575, 0.1825, 0.41, 0.6375, 0.865, 0.09, 0.3175, 0.5475, 0.775],
  "SoftwareVersions": "syngo_MR_B17",
  "SpacingBetweenSlices": 2,
  "StationName": "MASTER",
  "TaskName": "dsp",
  "TotalReadoutTime": 0.0230033,
  "TxRefAmp": 120,
  "dcmmeta_affine": [
    [-2.0, 0.0, 0.0, 106.1791763305664],
    [0.0, 1.9859310388565063, -0.2368079274892807, -112.17391204833984],
    [0.0, 0.2368079274892807, 1.9859310388565063, -31.579612731933594],
    [0.0, 0.0, 0.0, 1.0]
],
  "dcmmeta_reorient_transform": [
    [0.0, -1.0, 0.0, 103.0],
    [1.0, 0.0, 0.0, 0.0],
    [0.0, 0.0, 1.0, 0.0],
    [0.0, 0.0, 0.0, 1.0]
],
  "dcmmeta_shape": [104, 104, 44, 330],
  "dcmmeta_slice_dim": 2,
  "dcmmeta_version": 0.6,
  "global": {
    "const": {
      "AcquisitionMatrix": [104, 0, 0, 104],
      "AngioFlag": "N",
      "BitsAllocated": 16,
      "BitsStored": 12,
      "Columns": 728,
      "EchoNumbers": 1,
      "EchoTime": 20.0,
      "EchoTrainLength": 1,
      "FlipAngle": 30.0,
      "HighBit": 11,
      "ImageOrientationPatient": [1.0, 0.0, 0.0, 0.0, 0.99296550822323, -0.1184039673279],
      "ImagePositionPatient": [-730.1791768074, -711.98746294641, 66.695679233359],
      "ImageType": [
        "ORIGINAL",
        "PRIMARY",
        "M",
        "MB",
        "ND",
        "MOSAIC"
],
      "ImagedNucleus": "1H",
      "ImagingFrequency": 297.228962,
      "InPlanePhaseEncodingDirection": "COL",
      "MRAcquisitionType": "2D",
      "MagneticFieldStrength": 6.98,
      "Manufacturer": "SIEMENS",
      "ManufacturerModelName": "Investigational_Device_7T",
      "Modality": "MR",
      "NumberOfAverages": 1.0,
      "NumberOfPhaseEncodingSteps": 91,
      "PercentPhaseFieldOfView": 100.0,
      "PercentSampling": 100.0,
      "PerformedProcedureStepStartTime": "120509.234000",
      "PhotometricInterpretation": "MONOCHROME2",
      "PixelBandwidth": 1717.0,
      "PixelRepresentation": 0,
      "PixelSpacing": [2.0, 2.0],
      "ProtocolName": "mbep2d_bold_mb2_p3_AP 2iso",
      "RepetitionTime": 1000.0,
      "Rows": 728,
      "SAR": 0.0,
      "SamplesPerPixel": 1,
      "ScanOptions": [
        "PFP",
        "FS"
],
      "ScanningSequence": "EP",
      "SequenceName": "epfid2d1_104",
      "SequenceVariant": [
        "SK",
        "SS"
],
      "SeriesDescription": "mbep2d_bold_mb2_p3_AP 2iso",
      "SeriesNumber": 17,
      "SeriesTime": "123550.187000",
      "SliceLocation": -18.075631274307,
      "SliceThickness": 2.0,
      "SmallestImagePixelValue": 0,
      "SoftwareVersions": "syngo MR B17",
      "SpacingBetweenSlices": 1.9999999835174,
      "SpecificCharacterSet": "ISO_IR 100",
      "StudyID": "1",
      "StudyTime": "120509.171000",
      "TransmitCoilName": "CFMM_8Tx32Rx",
      "VariableFlipAngleFlag": "N",
      "WindowCenterWidthExplanation": "Algo1",
      "dBdt": 0.0},
    "slices": {}
  },
  "time": {
    "samples": {
      "AcquisitionNumber": [1, 2, 3, 4, 5, 6, 7, 8, 9, 10, 11, 12, 13, 14, 15, 16, 17, 18, 19, 20, 21, 22, 23, 24, 25, 26, 27, 28, 29, 30, 31, 32, 33, 34, 35, 36, 37, 38, 39, 40, 41, 42, 43, 44, 45, 46, 47, 48, 49, 50, 51, 52, 53, 54, 55, 56, 57, 58, 59, 60, 61, 62, 63, 64, 65, 66, 67, 68, 69, 70, 71, 72, 73, 74, 75, 76, 77, 78, 79, 80, 81, 82, 83, 84, 85, 86, 87, 88, 89, 90, 91, 92, 93, 94, 95, 96, 97, 98, 99, 100, 101, 102, 103, 104, 105, 106, 107, 108, 109, 110, 111, 112, 113, 114, 115, 116, 117, 118, 119, 120, 121, 122, 123, 124, 125, 126, 127, 128, 129, 130, 131, 132, 133, 134, 135, 136, 137, 138, 139, 140, 141, 142, 143, 144, 145, 146, 147, 148, 149, 150, 151, 152, 153, 154, 155, 156, 157, 158, 159, 160, 161, 162, 163, 164, 165, 166, 167, 168, 169, 170, 171, 172, 173, 174, 175, 176, 177, 178, 179, 180, 181, 182, 183, 184, 185, 186, 187, 188, 189, 190, 191, 192, 193, 194, 195, 196, 197, 198, 199, 200, 201, 202, 203, 204, 205, 206, 207, 208, 209, 210, 211, 212, 213, 214, 215, 216, 217, 218, 219, 220, 221, 222, 223, 224, 225, 226, 227, 228, 229, 230, 231, 232, 233, 234, 235, 236, 237, 238, 239, 240, 241, 242, 243, 244, 245, 246, 247, 248, 249, 250, 251, 252, 253, 254, 255, 256, 257, 258, 259, 260, 261, 262, 263, 264, 265, 266, 267, 268, 269, 270, 271, 272, 273, 274, 275, 276, 277, 278, 279, 280, 281, 282, 283, 284, 285, 286, 287, 288, 289, 290, 291, 292, 293, 294, 295, 296, 297, 298, 299, 300, 301, 302, 303, 304, 305, 306, 307, 308, 309, 310, 311, 312, 313, 314, 315, 316, 317, 318, 319, 320, 321, 322, 323, 324, 325, 326, 327, 328, 329, 330],
      "AcquisitionTime": ["123529.530000", "123530.532500", "123531.537500", "123532.540000", "123533.545000", "123534.550000", "123535.552500", "123536.557500", "123537.560000", "123538.565000", "123539.570000", "123540.572500", "123541.577500", "123542.580000", "123543.585000", "123544.590000", "123545.592500", "123546.597500", "123547.600000", "123548.605000", "123549.610000", "123550.612500", "123551.617500", "123552.622500", "123553.625000", "123554.630000", "123555.632500", "123556.637500", "123557.642500", "123558.645000", "123559.650000", "123600.652500", "123601.657500", "123602.662500", "123603.665000", "123604.670000", "123605.672500", "123606.677500", "123607.682500", "123608.685000", "123609.690000", "123610.692500", "123611.697500", "123612.702500", "123613.705000", "123614.710000", "123615.712500", "123616.717500", "123617.722500", "123618.725000", "123619.730000", "123620.735000", "123621.737500", "123622.742500", "123623.745000", "123624.750000", "123625.755000", "123626.757500", "123627.762500", "123628.765000", "123629.770000", "123630.775000", "123631.777500", "123632.782500", "123633.785000", "123634.790000", "123635.795000", "123636.797500", "123637.802500", "123638.805000", "123639.810000", "123640.815000", "123641.817500", "123642.822500", "123643.825000", "123644.830000", "123645.835000", "123646.837500", "123647.842500", "123648.845000", "123649.850000", "123650.855000", "123651.857500", "123652.862500", "123653.867500", "123654.870000", "123655.875000", "123656.877500", "123657.882500", "123658.887500", "123659.890000", "123700.895000", "123701.897500", "123702.902500", "123703.907500", "123704.910000", "123705.915000", "123706.917500", "123707.922500", "123708.927500", "123709.930000", "123710.935000", "123711.937500", "123712.942500", "123713.947500", "123714.950000", "123715.955000", "123716.957500", "123717.962500", "123718.967500", "123719.970000", "123720.975000", "123721.980000", "123722.982500", "123723.987500", "123724.990000", "123725.995000", "123727.000000", "123728.002500", "123729.007500", "123730.010000", "123731.015000", "123732.020000", "123733.022500", "123734.027500", "123735.030000", "123736.035000", "123737.040000", "123738.042500", "123739.047500", "123740.050000", "123741.055000", "123742.060000", "123743.062500", "123744.067500", "123745.070000", "123746.075000", "123747.080000", "123748.082500", "123749.087500", "123750.090000", "123751.095000", "123752.100000", "123753.102500", "123754.107500", "123755.112500", "123756.115000", "123757.120000", "123758.122500", "123759.127500", "123800.132500", "123801.135000", "123802.140000", "123803.142500", "123804.147500", "123805.152500", "123806.155000", "123807.160000", "123808.162500", "123809.167500", "123810.172500", "123811.175000", "123812.180000", "123813.182500", "123814.187500", "123815.192500", "123816.195000", "123817.200000", "123818.202500", "123819.207500", "123820.212500", "123821.215000", "123822.220000", "123823.222500", "123824.227500", "123825.232500", "123826.235000", "123827.240000", "123828.245000", "123829.247500", "123830.252500", "123831.255000", "123832.260000", "123833.265000", "123834.267500", "123835.272500", "123836.275000", "123837.280000", "123838.285000", "123839.287500", "123840.292500", "123841.295000", "123842.300000", "123843.305000", "123844.307500", "123845.312500", "123846.315000", "123847.320000", "123848.325000", "123849.327500", "123850.332500", "123851.335000", "123852.340000", "123853.345000", "123854.347500", "123855.352500", "123856.357500", "123857.360000", "123858.365000", "123859.367500", "123900.372500", "123901.377500", "123902.380000", "123903.385000", "123904.387500", "123905.392500", "123906.397500", "123907.400000", "123908.405000", "123909.407500", "123910.412500", "123911.417500", "123912.420000", "123913.425000", "123914.427500", "123915.432500", "123916.437500", "123917.440000", "123918.445000", "123919.447500", "123920.452500", "123921.457500", "123922.460000", "123923.465000", "123924.467500", "123925.472500", "123926.477500", "123927.480000", "123928.485000", "123929.490000", "123930.492500", "123931.497500", "123932.500000", "123933.505000", "123934.510000", "123935.512500", "123936.517500", "123937.520000", "123938.525000", "123939.530000", "123940.532500", "123941.537500", "123942.540000", "123943.545000", "123944.550000", "123945.552500", "123946.557500", "123947.560000", "123948.565000", "123949.570000", "123950.572500", "123951.577500", "123952.580000", "123953.585000", "123954.590000", "123955.592500", "123956.597500", "123957.600000", "123958.605000", "123959.610000", "124000.612500", "124001.617500", "124002.622500", "124003.625000", "124004.630000", "124005.632500", "124006.637500", "124007.642500", "124008.645000", "124009.650000", "124010.652500", "124011.657500", "124012.662500", "124013.665000", "124014.670000", "124015.672500", "124016.677500", "124017.682500", "124018.685000", "124019.690000", "124020.692500", "124021.697500", "124022.702500", "124023.705000", "124024.710000", "124025.712500", "124026.717500", "124027.722500", "124028.725000", "124029.730000", "124030.735000", "124031.737500", "124032.742500", "124033.745000", "124034.750000", "124035.755000", "124036.757500", "124037.762500", "124038.765000", "124039.770000", "124040.775000", "124041.777500", "124042.782500", "124043.785000", "124044.790000", "124045.795000", "124046.797500", "124047.802500", "124048.805000", "124049.810000", "124050.815000", "124051.817500", "124052.822500", "124053.825000", "124054.830000", "124055.835000", "124056.837500", "124057.842500", "124058.845000", "124059.850000"],
      "ContentTime": ["123550.187000", "123550.187000", "123550.187000", "123550.203000", "123550.203000", "123550.203000", "123550.203000", "123550.203000", "123550.218000", "123550.218000", "123550.218000", "123550.218000", "123550.218000", "123550.218000", "123550.218000", "123550.234000", "123550.234000", "123550.234000", "123550.234000", "123550.234000", "123610.140000", "123610.140000", "123610.156000", "123610.171000", "123610.171000", "123610.171000", "123610.171000", "123610.171000", "123610.171000", "123610.187000", "123610.187000", "123610.187000", "123610.187000", "123610.203000", "123610.203000", "123610.203000", "123610.203000", "123610.203000", "123610.218000", "123610.218000", "123630.140000", "123630.140000", "123630.140000", "123630.156000", "123630.156000", "123630.156000", "123630.156000", "123630.156000", "123630.156000", "123630.156000", "123630.171000", "123630.171000", "123630.171000", "123630.171000", "123630.171000", "123630.171000", "123630.187000", "123630.187000", "123630.187000", "123630.187000", "123650.140000", "123650.140000", "123650.156000", "123650.156000", "123650.156000", "123650.156000", "123650.156000", "123650.156000", "123650.171000", "123650.171000", "123650.171000", "123650.171000", "123650.171000", "123650.171000", "123650.171000", "123650.187000", "123650.187000", "123650.187000", "123650.187000", "123650.187000", "123710.140000", "123710.140000", "123710.140000", "123710.156000", "123710.156000", "123710.156000", "123710.156000", "123710.156000", "123710.156000", "123710.156000", "123710.156000", "123710.171000", "123710.171000", "123710.171000", "123710.171000", "123710.171000", "123710.171000", "123710.171000", "123710.187000", "123710.187000", "123730.140000", "123730.140000", "123730.140000", "123730.156000", "123730.156000", "123730.156000", "123730.156000", "123730.156000", "123730.156000", "123730.156000", "123730.171000", "123730.171000", "123730.187000", "123730.187000", "123730.187000", "123730.187000", "123730.187000", "123730.187000", "123730.203000", "123730.203000", "123750.140000", "123750.140000", "123750.140000", "123750.156000", "123750.156000", "123750.156000", "123750.156000", "123750.156000", "123750.156000", "123750.156000", "123750.156000", "123750.171000", "123750.171000", "123750.171000", "123750.171000", "123750.171000", "123750.171000", "123750.171000", "123750.187000", "123750.187000", "123810.140000", "123810.140000", "123810.140000", "123810.140000", "123810.156000", "123810.156000", "123810.156000", "123810.156000", "123810.156000", "123810.156000", "123810.156000", "123810.171000", "123810.171000", "123810.171000", "123810.171000", "123810.171000", "123810.171000", "123810.171000", "123810.187000", "123810.187000", "123830.140000", "123830.140000", "123830.140000", "123830.156000", "123830.156000", "123830.156000", "123830.156000", "123830.156000", "123830.156000", "123830.156000", "123830.171000", "123830.171000", "123830.171000", "123830.171000", "123830.171000", "123830.171000", "123830.187000", "123830.187000", "123830.187000", "123830.187000", "123850.140000", "123850.140000", "123850.140000", "123850.156000", "123850.156000", "123850.156000", "123850.156000", "123850.156000", "123850.156000", "123850.156000", "123850.156000", "123850.171000", "123850.171000", "123850.171000", "123850.171000", "123850.171000", "123850.171000", "123850.187000", "123850.187000", "123850.187000", "123910.140000", "123910.140000", "123910.140000", "123910.156000", "123910.156000", "123910.156000", "123910.156000", "123910.156000", "123910.156000", "123910.156000", "123910.156000", "123910.171000", "123910.171000", "123910.171000", "123910.171000", "123910.171000", "123910.171000", "123910.171000", "123910.187000", "123910.187000", "123930.140000", "123930.140000", "123930.140000", "123930.156000", "123930.156000", "123930.156000", "123930.156000", "123930.156000", "123930.156000", "123930.171000", "123930.171000", "123930.171000", "123930.171000", "123930.171000", "123930.171000", "123930.171000", "123930.187000", "123930.187000", "123930.187000", "123930.187000", "123950.140000", "123950.140000", "123950.140000", "123950.156000", "123950.156000", "123950.156000", "123950.156000", "123950.156000", "123950.156000", "123950.156000", "123950.156000", "123950.171000", "123950.171000", "123950.171000", "123950.171000", "123950.171000", "123950.171000", "123950.171000", "123950.187000", "123950.187000", "124010.140000", "124010.140000", "124010.140000", "124010.156000", "124010.156000", "124010.156000", "124010.156000", "124010.156000", "124010.156000", "124010.171000", "124010.171000", "124010.171000", "124010.171000", "124010.171000", "124010.171000", "124010.171000", "124010.187000", "124010.187000", "124010.187000", "124010.187000", "124030.140000", "124030.140000", "124030.140000", "124030.156000", "124030.156000", "124030.156000", "124030.156000", "124030.156000", "124030.156000", "124030.156000", "124030.171000", "124030.171000", "124030.171000", "124030.171000", "124030.171000", "124030.171000", "124030.171000", "124030.171000", "124030.187000", "124030.187000", "124050.140000", "124050.140000", "124050.140000", "124050.156000", "124050.156000", "124050.156000", "124050.156000", "124050.156000", "124050.156000", "124050.171000", "124050.171000", "124050.171000", "124050.171000", "124050.171000", "124050.171000", "124050.171000", "124050.187000", "124050.187000", "124050.187000", "124050.187000", "124104.921000", "124104.921000", "124104.921000", "124104.937000", "124104.937000", "124104.937000", "124104.937000", "124104.937000", "124104.937000", "124104.953000"],
      "InstanceCreationTime": ["123550.187000", "123550.187000", "123550.187000", "123550.203000", "123550.203000", "123550.203000", "123550.203000", "123550.203000", "123550.218000", "123550.218000", "123550.218000", "123550.218000", "123550.218000", "123550.218000", "123550.218000", "123550.234000", "123550.234000", "123550.234000", "123550.234000", "123550.234000", "123610.140000", "123610.140000", "123610.156000", "123610.171000", "123610.171000", "123610.171000", "123610.171000", "123610.171000", "123610.171000", "123610.187000", "123610.187000", "123610.187000", "123610.187000", "123610.203000", "123610.203000", "123610.203000", "123610.203000", "123610.203000", "123610.218000", "123610.218000", "123630.140000", "123630.140000", "123630.140000", "123630.156000", "123630.156000", "123630.156000", "123630.156000", "123630.156000", "123630.156000", "123630.156000", "123630.171000", "123630.171000", "123630.171000", "123630.171000", "123630.171000", "123630.171000", "123630.187000", "123630.187000", "123630.187000", "123630.187000", "123650.140000", "123650.140000", "123650.156000", "123650.156000", "123650.156000", "123650.156000", "123650.156000", "123650.156000", "123650.171000", "123650.171000", "123650.171000", "123650.171000", "123650.171000", "123650.171000", "123650.171000", "123650.187000", "123650.187000", "123650.187000", "123650.187000", "123650.187000", "123710.140000", "123710.140000", "123710.140000", "123710.156000", "123710.156000", "123710.156000", "123710.156000", "123710.156000", "123710.156000", "123710.156000", "123710.156000", "123710.171000", "123710.171000", "123710.171000", "123710.171000", "123710.171000", "123710.171000", "123710.171000", "123710.187000", "123710.187000", "123730.140000", "123730.140000", "123730.140000", "123730.156000", "123730.156000", "123730.156000", "123730.156000", "123730.156000", "123730.156000", "123730.156000", "123730.171000", "123730.171000", "123730.187000", "123730.187000", "123730.187000", "123730.187000", "123730.187000", "123730.187000", "123730.203000", "123730.203000", "123750.140000", "123750.140000", "123750.140000", "123750.156000", "123750.156000", "123750.156000", "123750.156000", "123750.156000", "123750.156000", "123750.156000", "123750.156000", "123750.171000", "123750.171000", "123750.171000", "123750.171000", "123750.171000", "123750.171000", "123750.171000", "123750.187000", "123750.187000", "123810.140000", "123810.140000", "123810.140000", "123810.140000", "123810.156000", "123810.156000", "123810.156000", "123810.156000", "123810.156000", "123810.156000", "123810.156000", "123810.171000", "123810.171000", "123810.171000", "123810.171000", "123810.171000", "123810.171000", "123810.171000", "123810.187000", "123810.187000", "123830.140000", "123830.140000", "123830.140000", "123830.156000", "123830.156000", "123830.156000", "123830.156000", "123830.156000", "123830.156000", "123830.156000", "123830.171000", "123830.171000", "123830.171000", "123830.171000", "123830.171000", "123830.171000", "123830.187000", "123830.187000", "123830.187000", "123830.187000", "123850.140000", "123850.140000", "123850.140000", "123850.156000", "123850.156000", "123850.156000", "123850.156000", "123850.156000", "123850.156000", "123850.156000", "123850.156000", "123850.171000", "123850.171000", "123850.171000", "123850.171000", "123850.171000", "123850.171000", "123850.187000", "123850.187000", "123850.187000", "123910.140000", "123910.140000", "123910.140000", "123910.156000", "123910.156000", "123910.156000", "123910.156000", "123910.156000", "123910.156000", "123910.156000", "123910.156000", "123910.171000", "123910.171000", "123910.171000", "123910.171000", "123910.171000", "123910.171000", "123910.171000", "123910.187000", "123910.187000", "123930.140000", "123930.140000", "123930.140000", "123930.156000", "123930.156000", "123930.156000", "123930.156000", "123930.156000", "123930.156000", "123930.171000", "123930.171000", "123930.171000", "123930.171000", "123930.171000", "123930.171000", "123930.171000", "123930.187000", "123930.187000", "123930.187000", "123930.187000", "123950.140000", "123950.140000", "123950.140000", "123950.156000", "123950.156000", "123950.156000", "123950.156000", "123950.156000", "123950.156000", "123950.156000", "123950.156000", "123950.171000", "123950.171000", "123950.171000", "123950.171000", "123950.171000", "123950.171000", "123950.171000", "123950.187000", "123950.187000", "124010.140000", "124010.140000", "124010.140000", "124010.156000", "124010.156000", "124010.156000", "124010.156000", "124010.156000", "124010.156000", "124010.171000", "124010.171000", "124010.171000", "124010.171000", "124010.171000", "124010.171000", "124010.171000", "124010.187000", "124010.187000", "124010.187000", "124010.187000", "124030.140000", "124030.140000", "124030.140000", "124030.156000", "124030.156000", "124030.156000", "124030.156000", "124030.156000", "124030.156000", "124030.156000", "124030.171000", "124030.171000", "124030.171000", "124030.171000", "124030.171000", "124030.171000", "124030.171000", "124030.171000", "124030.187000", "124030.187000", "124050.140000", "124050.140000", "124050.140000", "124050.156000", "124050.156000", "124050.156000", "124050.156000", "124050.156000", "124050.156000", "124050.171000", "124050.171000", "124050.171000", "124050.171000", "124050.171000", "124050.171000", "124050.171000", "124050.187000", "124050.187000", "124050.187000", "124050.187000", "124104.921000", "124104.921000", "124104.921000", "124104.937000", "124104.937000", "124104.937000", "124104.937000", "124104.937000", "124104.937000", "124104.953000"],
      "InstanceNumber": [1, 2, 3, 4, 5, 6, 7, 8, 9, 10, 11, 12, 13, 14, 15, 16, 17, 18, 19, 20, 21, 22, 23, 24, 25, 26, 27, 28, 29, 30, 31, 32, 33, 34, 35, 36, 37, 38, 39, 40, 41, 42, 43, 44, 45, 46, 47, 48, 49, 50, 51, 52, 53, 54, 55, 56, 57, 58, 59, 60, 61, 62, 63, 64, 65, 66, 67, 68, 69, 70, 71, 72, 73, 74, 75, 76, 77, 78, 79, 80, 81, 82, 83, 84, 85, 86, 87, 88, 89, 90, 91, 92, 93, 94, 95, 96, 97, 98, 99, 100, 101, 102, 103, 104, 105, 106, 107, 108, 109, 110, 111, 112, 113, 114, 115, 116, 117, 118, 119, 120, 121, 122, 123, 124, 125, 126, 127, 128, 129, 130, 131, 132, 133, 134, 135, 136, 137, 138, 139, 140, 141, 142, 143, 144, 145, 146, 147, 148, 149, 150, 151, 152, 153, 154, 155, 156, 157, 158, 159, 160, 161, 162, 163, 164, 165, 166, 167, 168, 169, 170, 171, 172, 173, 174, 175, 176, 177, 178, 179, 180, 181, 182, 183, 184, 185, 186, 187, 188, 189, 190, 191, 192, 193, 194, 195, 196, 197, 198, 199, 200, 201, 202, 203, 204, 205, 206, 207, 208, 209, 210, 211, 212, 213, 214, 215, 216, 217, 218, 219, 220, 221, 222, 223, 224, 225, 226, 227, 228, 229, 230, 231, 232, 233, 234, 235, 236, 237, 238, 239, 240, 241, 242, 243, 244, 245, 246, 247, 248, 249, 250, 251, 252, 253, 254, 255, 256, 257, 258, 259, 260, 261, 262, 263, 264, 265, 266, 267, 268, 269, 270, 271, 272, 273, 274, 275, 276, 277, 278, 279, 280, 281, 282, 283, 284, 285, 286, 287, 288, 289, 290, 291, 292, 293, 294, 295, 296, 297, 298, 299, 300, 301, 302, 303, 304, 305, 306, 307, 308, 309, 310, 311, 312, 313, 314, 315, 316, 317, 318, 319, 320, 321, 322, 323, 324, 325, 326, 327, 328, 329, 330],
      "LargestImagePixelValue": [2028, 2017, 2025, 1990, 2004, 2004, 1982, 1986, 1962, 1978, 1996, 1984, 1979, 1997, 2009, 1976, 2004, 1995, 1973, 1962, 1977, 1978, 1993, 1996, 1985, 1984, 2008, 2003, 1976, 1995, 1970, 1973, 1964, 1959, 1954, 1996, 1979, 1973, 1975, 1995, 1977, 1998, 1979, 1969, 1993, 1992, 1952, 1986, 1981, 1985, 1971, 2003, 1974, 1981, 2008, 1985, 1963, 1981, 1969, 1970, 1977, 1997, 1974, 1994, 1995, 1968, 1967, 1930, 1940, 1935, 1966, 1973, 1973, 1966, 1944, 1968, 1950, 1978, 1961, 1966, 1977, 1986, 1954, 1961, 1975, 1978, 1956, 1972, 1960, 1951, 1958, 1987, 1970, 1938, 1967, 1936, 1941, 1966, 1989, 1967, 1929, 1952, 1961, 1922, 1948, 1948, 1952, 1962, 1959, 1995, 1966, 1986, 1965, 1959, 1963, 1956, 1977, 1924, 1968, 1975, 1948, 1946, 1971, 1957, 1953, 1966, 1946, 1966, 1971, 1958, 1953, 1977, 1962, 1962, 1938, 1940, 1964, 1944, 1942, 1967, 1978, 1971, 1935, 1976, 1952, 1924, 1945, 1942, 1968, 1956, 1938, 1952, 1907, 1963, 1996, 1975, 1949, 1959, 2014, 1971, 1925, 1923, 1972, 1939, 1950, 1939, 1928, 1978, 1947, 1924, 1911, 1936, 1959, 1944, 1951, 1933, 1945, 1957, 1937, 1927, 1964, 2015, 1956, 1961, 1977, 1970, 1960, 1977, 1982, 2013, 1987, 1935, 1967, 1931, 1968, 1942, 1988, 1956, 1957, 1977, 1968, 1957, 1979, 1964, 1954, 1952, 1935, 1976, 1995, 1937, 1981, 1979, 1976, 1990, 1940, 1959, 1983, 1980, 1980, 1989, 1969, 1959, 1995, 1973, 1976, 1964, 1937, 1966, 1996, 1985, 1978, 2006, 1994, 2006, 1980, 1986, 1985, 1987, 2015, 2003, 1978, 1977, 1997, 1975, 1978, 1965, 2010, 1990, 1984, 2003, 2002, 2001, 2000, 2038, 1998, 1993, 1947, 1984, 2005, 2011, 1996, 2029, 2032, 2019, 2016, 2039, 2020, 2014, 2007, 2014, 1990, 2008, 2011, 1989, 2003, 2023, 2008, 2022, 2034, 2029, 2022, 2017, 2011, 2044, 2041, 2019, 2049, 2023, 2040, 2019, 2051, 2034, 1994, 2018, 2040, 2059, 2048, 2043, 2058, 2065, 2034, 2024, 2039, 2045, 2050, 2051, 2035, 2065, 2038, 2050, 2057, 2044, 2076, 2086, 2063, 2066, 2069, 2070, 2075, 2068, 2095, 2121, 2098, 2070, 2085, 2091, 2093, 2068, 2052, 2057],
      "WindowCenter": [434.0, 433.0, 432.0, 432.0, 432.0, 431.0, 432.0, 432.0, 432.0, 431.0, 431.0, 432.0, 432.0, 434.0, 434.0, 434.0, 433.0, 431.0, 430.0, 431.0, 431.0, 431.0, 432.0, 432.0, 431.0, 431.0, 431.0, 432.0, 433.0, 432.0, 433.0, 433.0, 433.0, 432.0, 432.0, 433.0, 433.0, 433.0, 433.0, 433.0, 432.0, 433.0, 432.0, 432.0, 431.0, 431.0, 431.0, 431.0, 431.0, 431.0, 432.0, 432.0, 432.0, 432.0, 432.0, 432.0, 433.0, 433.0, 433.0, 434.0, 436.0, 436.0, 436.0, 434.0, 434.0, 432.0, 431.0, 431.0, 431.0, 431.0, 432.0, 432.0, 432.0, 432.0, 432.0, 432.0, 432.0, 432.0, 432.0, 432.0, 431.0, 431.0, 432.0, 431.0, 432.0, 432.0, 432.0, 432.0, 433.0, 433.0, 433.0, 433.0, 432.0, 432.0, 432.0, 431.0, 431.0, 431.0, 432.0, 431.0, 432.0, 433.0, 433.0, 433.0, 434.0, 434.0, 434.0, 434.0, 434.0, 433.0, 432.0, 432.0, 432.0, 431.0, 431.0, 432.0, 432.0, 432.0, 432.0, 431.0, 431.0, 431.0, 431.0, 431.0, 432.0, 432.0, 433.0, 434.0, 434.0, 434.0, 434.0, 434.0, 434.0, 434.0, 433.0, 434.0, 434.0, 432.0, 432.0, 432.0, 431.0, 431.0, 431.0, 432.0, 432.0, 431.0, 431.0, 431.0, 432.0, 433.0, 433.0, 433.0, 433.0, 434.0, 433.0, 433.0, 434.0, 433.0, 434.0, 433.0, 432.0, 431.0, 431.0, 431.0, 431.0, 432.0, 432.0, 433.0, 433.0, 432.0, 432.0, 432.0, 433.0, 433.0, 432.0, 432.0, 432.0, 431.0, 430.0, 431.0, 433.0, 433.0, 433.0, 434.0, 434.0, 434.0, 433.0, 433.0, 432.0, 432.0, 432.0, 431.0, 431.0, 431.0, 431.0, 432.0, 432.0, 432.0, 431.0, 431.0, 431.0, 432.0, 432.0, 432.0, 433.0, 433.0, 432.0, 432.0, 432.0, 432.0, 432.0, 432.0, 432.0, 433.0, 432.0, 433.0, 434.0, 434.0, 435.0, 434.0, 433.0, 432.0, 432.0, 431.0, 432.0, 432.0, 432.0, 432.0, 433.0, 434.0, 435.0, 434.0, 434.0, 434.0, 432.0, 432.0, 433.0, 433.0, 433.0, 433.0, 433.0, 432.0, 431.0, 431.0, 432.0, 433.0, 433.0, 434.0, 434.0, 434.0, 434.0, 434.0, 435.0, 434.0, 432.0, 432.0, 431.0, 432.0, 433.0, 435.0, 436.0, 436.0, 436.0, 434.0, 432.0, 432.0, 433.0, 432.0, 432.0, 433.0, 433.0, 433.0, 434.0, 433.0, 434.0, 435.0, 435.0, 436.0, 435.0, 434.0, 434.0, 433.0, 433.0, 433.0, 433.0, 433.0, 434.0, 434.0, 434.0, 434.0, 434.0, 434.0, 433.0, 434.0, 435.0, 435.0, 437.0, 436.0, 435.0, 435.0, 433.0, 433.0, 433.0, 434.0, 433.0, 434.0, 435.0, 435.0, 434.0, 434.0, 434.0, 433.0, 434.0, 434.0, 434.0, 433.0, 434.0, 435.0, 434.0, 434.0, 434.0, 434.0, 434.0, 434.0, 435.0, 437.0, 436.0, 435.0, 435.0, 434.0],
