{
  "AcquisitionMatrixPE": 104,
  "AcquisitionNumber": 1,
  "AcquisitionTime": "13:19:14.027500",
  "BandwidthPerPixelPhaseEncode": 43.054,
  "BaseResolution": 104,
  "CoilString": "C:E1_2",
  "ConversionSoftware": "dcm2niix",
  "ConversionSoftwareVersion": "v1.0.20191031",
  "DerivedVendorReportedEchoSpacing": 0.000669999,
  "DeviceSerialNumber": "18932",
  "DwellTime": 2.8e-06,
  "EchoTime": 0.02,
  "EffectiveEchoSpacing": 0.000223333,
  "FlipAngle": 30,
  "ImageComments": "Unaliased_MB2_PE2",
  "ImageOrientationPatientDICOM": [1, 0, 0, 0, 0.992966, -0.118404],
  "ImageType": [
    "ORIGINAL",
    "PRIMARY",
    "M",
    "MB",
    "ND",
    "MOSAIC"
],
  "ImagingFrequency": 297.229,
  "InPlanePhaseEncodingDirectionDICOM": "COL",
  "InstitutionAddress": "Richmond_Street_North_1151_London_409EF2_Ontario_CA_N6A_5B7",
  "InstitutionName": "Robarts_Reserch_Institute",
  "InstitutionalDepartmentName": "Department",
  "MRAcquisitionType": "2D",
  "MagneticFieldStrength": 6.98,
  "Manufacturer": "Siemens",
  "ManufacturersModelName": "Investigational_Device_7T",
  "Modality": "MR",
  "MultibandAccelerationFactor": 2,
  "ParallelReductionFactorInPlane": 3,
  "PartialFourier": 0.875,
  "PatientPosition": "HFS",
  "PercentPhaseFOV": 100,
  "PhaseEncodingDirection": "j-",
  "PhaseEncodingSteps": 91,
  "PhaseResolution": 1,
  "PixelBandwidth": 1717,
  "ProcedureStepDescription": "Diedrichsen_SeqRep4",
  "ProtocolName": "mbep2d_bold_mb2_p3_AP_2iso",
  "PulseSequenceDetails": "%CustomerSeq%_cmrr_mbep2d_bold",
  "ReceiveCoilName": "CFMM_8Tx32Rx",
  "ReconMatrixPE": 104,
  "RefLinesPE": 36,
  "RepetitionTime": 1,
  "ScanOptions": "PFP_FS",
  "ScanningSequence": "EP",
  "SequenceName": "epfid2d1_104",
  "SequenceVariant": "SK_SS",
  "SeriesDescription": "mbep2d_bold_mb2_p3_AP_2iso",
  "SeriesNumber": 32,
  "ShimSetting": [5, 2050, 86, 1698, -41, 218, -27, -187],
  "SliceThickness": 2,
  "SliceTiming": [0, 0.2275, 0.455, 0.685, 0.9125, 0.1375, 0.365, 0.5925, 0.82, 0.045, 0.2725, 0.5025, 0.73, 0.9575, 0.1825, 0.41, 0.6375, 0.8675, 0.09, 0.32, 0.5475, 0.775, 0, 0.2275, 0.455, 0.685, 0.9125, 0.1375, 0.365, 0.5925, 0.82, 0.045, 0.2725, 0.5025, 0.73, 0.9575, 0.1825, 0.41, 0.6375, 0.8675, 0.09, 0.32, 0.5475, 0.775],
  "SoftwareVersions": "syngo_MR_B17",
  "SpacingBetweenSlices": 2,
  "StationName": "MASTER",
  "TaskName": "dsp",
  "TotalReadoutTime": 0.0230033,
  "TxRefAmp": 120,
  "dcmmeta_affine": [
    [-2.0, 0.0, 0.0, 106.1791763305664],
    [0.0, 1.9859310388565063, -0.2368079274892807, -112.17391204833984],
    [0.0, 0.2368079274892807, 1.9859310388565063, -31.579612731933594],
    [0.0, 0.0, 0.0, 1.0]
],
  "dcmmeta_reorient_transform": [
    [0.0, -1.0, 0.0, 103.0],
    [1.0, 0.0, 0.0, 0.0],
    [0.0, 0.0, 1.0, 0.0],
    [0.0, 0.0, 0.0, 1.0]
],
  "dcmmeta_shape": [104, 104, 44, 330],
  "dcmmeta_slice_dim": 2,
  "dcmmeta_version": 0.6,
  "global": {
    "const": {
      "AcquisitionMatrix": [104, 0, 0, 104],
      "AngioFlag": "N",
      "BitsAllocated": 16,
      "BitsStored": 12,
      "Columns": 728,
      "EchoNumbers": 1,
      "EchoTime": 20.0,
      "EchoTrainLength": 1,
      "FlipAngle": 30.0,
      "HighBit": 11,
      "ImageOrientationPatient": [1.0, 0.0, 0.0, 0.0, 0.99296550822323, -0.1184039673279],
      "ImagePositionPatient": [-730.1791768074, -711.98746294641, 66.695679233359],
      "ImageType": [
        "ORIGINAL",
        "PRIMARY",
        "M",
        "MB",
        "ND",
        "MOSAIC"
],
      "ImagedNucleus": "1H",
      "ImagingFrequency": 297.228994,
      "InPlanePhaseEncodingDirection": "COL",
      "MRAcquisitionType": "2D",
      "MagneticFieldStrength": 6.98,
      "Manufacturer": "SIEMENS",
      "ManufacturerModelName": "Investigational_Device_7T",
      "Modality": "MR",
      "NumberOfAverages": 1.0,
      "NumberOfPhaseEncodingSteps": 91,
      "PercentPhaseFieldOfView": 100.0,
      "PercentSampling": 100.0,
      "PerformedProcedureStepStartTime": "120509.234000",
      "PhotometricInterpretation": "MONOCHROME2",
      "PixelBandwidth": 1717.0,
      "PixelRepresentation": 0,
      "PixelSpacing": [2.0, 2.0],
      "ProtocolName": "mbep2d_bold_mb2_p3_AP 2iso",
      "RepetitionTime": 1000.0,
      "Rows": 728,
      "SAR": 0.0,
      "SamplesPerPixel": 1,
      "ScanOptions": [
        "PFP",
        "FS"
],
      "ScanningSequence": "EP",
      "SequenceName": "epfid2d1_104",
      "SequenceVariant": [
        "SK",
        "SS"
],
      "SeriesDescription": "mbep2d_bold_mb2_p3_AP 2iso",
      "SeriesNumber": 32,
      "SeriesTime": "131950.171000",
      "SliceLocation": -18.075631274307,
      "SliceThickness": 2.0,
      "SmallestImagePixelValue": 0,
      "SoftwareVersions": "syngo MR B17",
      "SpacingBetweenSlices": 1.9999999835174,
      "SpecificCharacterSet": "ISO_IR 100",
      "StudyID": "1",
      "StudyTime": "120509.171000",
      "TransmitCoilName": "CFMM_8Tx32Rx",
      "VariableFlipAngleFlag": "N",
      "WindowCenterWidthExplanation": "Algo1",
      "dBdt": 0.0},
    "slices": {}
  },
  "time": {
    "samples": {
      "AcquisitionNumber": [1, 2, 3, 4, 5, 6, 7, 8, 9, 10, 11, 12, 13, 14, 15, 16, 17, 18, 19, 20, 21, 22, 23, 24, 25, 26, 27, 28, 29, 30, 31, 32, 33, 34, 35, 36, 37, 38, 39, 40, 41, 42, 43, 44, 45, 46, 47, 48, 49, 50, 51, 52, 53, 54, 55, 56, 57, 58, 59, 60, 61, 62, 63, 64, 65, 66, 67, 68, 69, 70, 71, 72, 73, 74, 75, 76, 77, 78, 79, 80, 81, 82, 83, 84, 85, 86, 87, 88, 89, 90, 91, 92, 93, 94, 95, 96, 97, 98, 99, 100, 101, 102, 103, 104, 105, 106, 107, 108, 109, 110, 111, 112, 113, 114, 115, 116, 117, 118, 119, 120, 121, 122, 123, 124, 125, 126, 127, 128, 129, 130, 131, 132, 133, 134, 135, 136, 137, 138, 139, 140, 141, 142, 143, 144, 145, 146, 147, 148, 149, 150, 151, 152, 153, 154, 155, 156, 157, 158, 159, 160, 161, 162, 163, 164, 165, 166, 167, 168, 169, 170, 171, 172, 173, 174, 175, 176, 177, 178, 179, 180, 181, 182, 183, 184, 185, 186, 187, 188, 189, 190, 191, 192, 193, 194, 195, 196, 197, 198, 199, 200, 201, 202, 203, 204, 205, 206, 207, 208, 209, 210, 211, 212, 213, 214, 215, 216, 217, 218, 219, 220, 221, 222, 223, 224, 225, 226, 227, 228, 229, 230, 231, 232, 233, 234, 235, 236, 237, 238, 239, 240, 241, 242, 243, 244, 245, 246, 247, 248, 249, 250, 251, 252, 253, 254, 255, 256, 257, 258, 259, 260, 261, 262, 263, 264, 265, 266, 267, 268, 269, 270, 271, 272, 273, 274, 275, 276, 277, 278, 279, 280, 281, 282, 283, 284, 285, 286, 287, 288, 289, 290, 291, 292, 293, 294, 295, 296, 297, 298, 299, 300, 301, 302, 303, 304, 305, 306, 307, 308, 309, 310, 311, 312, 313, 314, 315, 316, 317, 318, 319, 320, 321, 322, 323, 324, 325, 326, 327, 328, 329, 330],
      "AcquisitionTime": ["131914.027500", "131915.032500", "131916.035000", "131917.040000", "131918.042500", "131919.047500", "131920.052500", "131921.055000", "131922.060000", "131923.062500", "131924.067500", "131925.072500", "131926.075000", "131927.080000", "131928.082500", "131929.087500", "131930.092500", "131931.095000", "131932.100000", "131933.102500", "131934.107500", "131935.112500", "131936.115000", "131937.120000", "131938.122500", "131939.127500", "131940.132500", "131941.135000", "131942.140000", "131943.145000", "131944.147500", "131945.152500", "131946.155000", "131947.160000", "131948.165000", "131949.167500", "131950.172500", "131951.175000", "131952.180000", "131953.185000", "131954.187500", "131955.192500", "131956.195000", "131957.200000", "131958.205000", "131959.207500", "132000.212500", "132001.215000", "132002.220000", "132003.225000", "132004.227500", "132005.232500", "132006.235000", "132007.240000", "132008.245000", "132009.247500", "132010.252500", "132011.255000", "132012.260000", "132013.265000", "132014.267500", "132015.272500", "132016.277500", "132017.280000", "132018.285000", "132019.287500", "132020.292500", "132021.297500", "132022.300000", "132023.305000", "132024.307500", "132025.312500", "132026.317500", "132027.320000", "132028.325000", "132029.327500", "132030.332500", "132031.337500", "132032.340000", "132033.345000", "132034.347500", "132035.352500", "132036.357500", "132037.360000", "132038.365000", "132039.367500", "132040.372500", "132041.377500", "132042.380000", "132043.385000", "132044.387500", "132045.392500", "132046.397500", "132047.400000", "132048.405000", "132049.410000", "132050.412500", "132051.417500", "132052.420000", "132053.425000", "132054.430000", "132055.432500", "132056.437500", "132057.440000", "132058.445000", "132059.450000", "132100.452500", "132101.457500", "132102.460000", "132103.465000", "132104.470000", "132105.472500", "132106.477500", "132107.480000", "132108.485000", "132109.490000", "132110.492500", "132111.497500", "132112.500000", "132113.505000", "132114.510000", "132115.512500", "132116.517500", "132117.522500", "132118.525000", "132119.530000", "132120.532500", "132121.537500", "132122.542500", "132123.545000", "132124.550000", "132125.552500", "132126.557500", "132127.562500", "132128.565000", "132129.570000", "132130.572500", "132131.577500", "132132.582500", "132133.585000", "132134.590000", "132135.592500", "132136.597500", "132137.602500", "132138.605000", "132139.610000", "132140.612500", "132141.617500", "132142.622500", "132143.625000", "132144.630000", "132145.632500", "132146.637500", "132147.642500", "132148.645000", "132149.650000", "132150.655000", "132151.657500", "132152.662500", "132153.665000", "132154.670000", "132155.675000", "132156.677500", "132157.682500", "132158.685000", "132159.690000", "132200.695000", "132201.697500", "132202.702500", "132203.705000", "132204.710000", "132205.715000", "132206.717500", "132207.722500", "132208.725000", "132209.730000", "132210.735000", "132211.737500", "132212.742500", "132213.745000", "132214.750000", "132215.755000", "132216.757500", "132217.762500", "132218.765000", "132219.770000", "132220.775000", "132221.777500", "132222.782500", "132223.787500", "132224.790000", "132225.795000", "132226.797500", "132227.802500", "132228.807500", "132229.810000", "132230.815000", "132231.817500", "132232.822500", "132233.827500", "132234.830000", "132235.835000", "132236.837500", "132237.842500", "132238.847500", "132239.850000", "132240.855000", "132241.857500", "132242.862500", "132243.867500", "132244.870000", "132245.875000", "132246.877500", "132247.882500", "132248.887500", "132249.890000", "132250.895000", "132251.900000", "132252.902500", "132253.907500", "132254.910000", "132255.915000", "132256.920000", "132257.922500", "132258.927500", "132259.930000", "132300.935000", "132301.940000", "132302.942500", "132303.947500", "132304.950000", "132305.955000", "132306.960000", "132307.962500", "132308.967500", "132309.970000", "132310.975000", "132311.980000", "132312.982500", "132313.987500", "132314.990000", "132315.995000", "132317.000000", "132318.002500", "132319.007500", "132320.010000", "132321.015000", "132322.020000", "132323.022500", "132324.027500", "132325.032500", "132326.035000", "132327.040000", "132328.042500", "132329.047500", "132330.052500", "132331.055000", "132332.060000", "132333.062500", "132334.067500", "132335.072500", "132336.075000", "132337.080000", "132338.082500", "132339.087500", "132340.092500", "132341.095000", "132342.100000", "132343.102500", "132344.107500", "132345.112500", "132346.115000", "132347.120000", "132348.122500", "132349.127500", "132350.132500", "132351.135000", "132352.140000", "132353.145000", "132354.147500", "132355.152500", "132356.155000", "132357.160000", "132358.165000", "132359.167500", "132400.172500", "132401.175000", "132402.180000", "132403.185000", "132404.187500", "132405.192500", "132406.195000", "132407.200000", "132408.205000", "132409.207500", "132410.212500", "132411.215000", "132412.220000", "132413.225000", "132414.227500", "132415.232500", "132416.235000", "132417.240000", "132418.245000", "132419.247500", "132420.252500", "132421.255000", "132422.260000", "132423.265000", "132424.267500", "132425.272500", "132426.277500", "132427.280000", "132428.285000", "132429.287500", "132430.292500", "132431.297500", "132432.300000", "132433.305000", "132434.307500", "132435.312500", "132436.317500", "132437.320000", "132438.325000", "132439.327500", "132440.332500", "132441.337500", "132442.340000", "132443.345000", "132444.347500"],
      "ContentTime": ["131950.171000", "131950.171000", "131950.187000", "131950.187000", "131950.187000", "131950.187000", "131950.187000", "131950.203000", "131950.203000", "131950.203000", "131950.203000", "131950.203000", "131950.203000", "131950.203000", "131950.203000", "131950.218000", "131950.218000", "131950.218000", "131950.218000", "131950.218000", "131950.218000", "131950.218000", "131950.234000", "131950.234000", "131950.234000", "131950.234000", "131950.234000", "131950.234000", "131950.234000", "131950.250000", "131950.250000", "131950.250000", "131950.250000", "131950.250000", "131950.250000", "132010.140000", "132010.140000", "132010.140000", "132010.156000", "132010.156000", "132010.156000", "132010.156000", "132010.156000", "132010.156000", "132010.156000", "132010.156000", "132010.171000", "132010.171000", "132010.171000", "132010.171000", "132010.187000", "132010.187000", "132010.187000", "132010.187000", "132010.187000", "132030.140000", "132030.140000", "132030.140000", "132030.156000", "132030.156000", "132030.156000", "132030.156000", "132030.156000", "132030.156000", "132030.156000", "132030.156000", "132030.171000", "132030.171000", "132030.171000", "132030.171000", "132030.171000", "132030.187000", "132030.187000", "132030.187000", "132030.187000", "132050.140000", "132050.140000", "132050.140000", "132050.156000", "132050.156000", "132050.156000", "132050.156000", "132050.156000", "132050.156000", "132050.156000", "132050.156000", "132050.171000", "132050.171000", "132050.171000", "132050.171000", "132050.171000", "132050.171000", "132050.171000", "132050.187000", "132050.187000", "132110.140000", "132110.140000", "132110.140000", "132110.156000", "132110.156000", "132110.156000", "132110.156000", "132110.156000", "132110.156000", "132110.171000", "132110.171000", "132110.171000", "132110.171000", "132110.171000", "132110.171000", "132110.171000", "132110.187000", "132110.187000", "132110.187000", "132110.187000", "132130.140000", "132130.140000", "132130.156000", "132130.156000", "132130.156000", "132130.156000", "132130.156000", "132130.171000", "132130.171000", "132130.171000", "132130.171000", "132130.171000", "132130.187000", "132130.187000", "132130.187000", "132130.187000", "132130.187000", "132130.187000", "132130.187000", "132130.187000", "132150.140000", "132150.140000", "132150.140000", "132150.156000", "132150.156000", "132150.156000", "132150.156000", "132150.171000", "132150.171000", "132150.171000", "132150.171000", "132150.171000", "132150.187000", "132150.187000", "132150.187000", "132150.187000", "132150.203000", "132150.203000", "132150.203000", "132150.203000", "132210.140000", "132210.140000", "132210.140000", "132210.156000", "132210.156000", "132210.171000", "132210.171000", "132210.171000", "132210.171000", "132210.171000", "132210.171000", "132210.171000", "132210.187000", "132210.187000", "132210.187000", "132210.187000", "132210.187000", "132210.187000", "132210.187000", "132210.203000", "132230.140000", "132230.140000", "132230.140000", "132230.156000", "132230.156000", "132230.156000", "132230.156000", "132230.171000", "132230.171000", "132230.171000", "132230.171000", "132230.171000", "132230.171000", "132230.171000", "132230.187000", "132230.187000", "132230.187000", "132230.187000", "132230.187000", "132230.187000", "132250.140000", "132250.140000", "132250.140000", "132250.156000", "132250.156000", "132250.156000", "132250.156000", "132250.156000", "132250.156000", "132250.156000", "132250.171000", "132250.171000", "132250.171000", "132250.171000", "132250.171000", "132250.171000", "132250.171000", "132250.171000", "132250.187000", "132250.187000", "132310.140000", "132310.140000", "132310.140000", "132310.156000", "132310.156000", "132310.156000", "132310.156000", "132310.156000", "132310.156000", "132310.156000", "132310.171000", "132310.171000", "132310.171000", "132310.171000", "132310.171000", "132310.171000", "132310.171000", "132310.187000", "132310.187000", "132310.187000", "132330.140000", "132330.140000", "132330.140000", "132330.156000", "132330.156000", "132330.156000", "132330.156000", "132330.156000", "132330.156000", "132330.156000", "132330.156000", "132330.171000", "132330.171000", "132330.171000", "132330.171000", "132330.171000", "132330.171000", "132330.171000", "132330.187000", "132330.187000", "132350.140000", "132350.140000", "132350.140000", "132350.156000", "132350.156000", "132350.156000", "132350.156000", "132350.156000", "132350.156000", "132350.156000", "132350.156000", "132350.171000", "132350.171000", "132350.171000", "132350.171000", "132350.171000", "132350.171000", "132350.187000", "132350.187000", "132350.187000", "132410.140000", "132410.140000", "132410.140000", "132410.156000", "132410.156000", "132410.156000", "132410.156000", "132410.156000", "132410.156000", "132410.171000", "132410.171000", "132410.171000", "132410.171000", "132410.171000", "132410.171000", "132410.171000", "132410.187000", "132410.187000", "132410.187000", "132410.187000", "132430.140000", "132430.140000", "132430.140000", "132430.156000", "132430.156000", "132430.156000", "132430.156000", "132430.156000", "132430.156000", "132430.156000", "132430.156000", "132430.171000", "132430.171000", "132430.171000", "132430.171000", "132430.171000", "132430.171000", "132430.171000", "132430.187000", "132430.187000", "132449.515000", "132449.515000", "132449.515000", "132449.515000", "132449.515000", "132449.531000", "132449.531000", "132449.531000", "132449.531000", "132449.531000", "132449.531000", "132449.531000", "132449.546000", "132449.546000", "132449.546000"],
      "InstanceCreationTime": ["131950.171000", "131950.171000", "131950.187000", "131950.187000", "131950.187000", "131950.187000", "131950.187000", "131950.203000", "131950.203000", "131950.203000", "131950.203000", "131950.203000", "131950.203000", "131950.203000", "131950.203000", "131950.218000", "131950.218000", "131950.218000", "131950.218000", "131950.218000", "131950.218000", "131950.218000", "131950.234000", "131950.234000", "131950.234000", "131950.234000", "131950.234000", "131950.234000", "131950.234000", "131950.250000", "131950.250000", "131950.250000", "131950.250000", "131950.250000", "131950.250000", "132010.140000", "132010.140000", "132010.140000", "132010.156000", "132010.156000", "132010.156000", "132010.156000", "132010.156000", "132010.156000", "132010.156000", "132010.156000", "132010.171000", "132010.171000", "132010.171000", "132010.171000", "132010.187000", "132010.187000", "132010.187000", "132010.187000", "132010.187000", "132030.140000", "132030.140000", "132030.140000", "132030.156000", "132030.156000", "132030.156000", "132030.156000", "132030.156000", "132030.156000", "132030.156000", "132030.156000", "132030.171000", "132030.171000", "132030.171000", "132030.171000", "132030.171000", "132030.187000", "132030.187000", "132030.187000", "132030.187000", "132050.140000", "132050.140000", "132050.140000", "132050.156000", "132050.156000", "132050.156000", "132050.156000", "132050.156000", "132050.156000", "132050.156000", "132050.156000", "132050.171000", "132050.171000", "132050.171000", "132050.171000", "132050.171000", "132050.171000", "132050.171000", "132050.187000", "132050.187000", "132110.140000", "132110.140000", "132110.140000", "132110.156000", "132110.156000", "132110.156000", "132110.156000", "132110.156000", "132110.156000", "132110.171000", "132110.171000", "132110.171000", "132110.171000", "132110.171000", "132110.171000", "132110.171000", "132110.187000", "132110.187000", "132110.187000", "132110.187000", "132130.140000", "132130.140000", "132130.156000", "132130.156000", "132130.156000", "132130.156000", "132130.156000", "132130.171000", "132130.171000", "132130.171000", "132130.171000", "132130.171000", "132130.187000", "132130.187000", "132130.187000", "132130.187000", "132130.187000", "132130.187000", "132130.187000", "132130.187000", "132150.140000", "132150.140000", "132150.140000", "132150.156000", "132150.156000", "132150.156000", "132150.156000", "132150.171000", "132150.171000", "132150.171000", "132150.171000", "132150.171000", "132150.187000", "132150.187000", "132150.187000", "132150.187000", "132150.203000", "132150.203000", "132150.203000", "132150.203000", "132210.140000", "132210.140000", "132210.140000", "132210.156000", "132210.156000", "132210.171000", "132210.171000", "132210.171000", "132210.171000", "132210.171000", "132210.171000", "132210.171000", "132210.187000", "132210.187000", "132210.187000", "132210.187000", "132210.187000", "132210.187000", "132210.187000", "132210.203000", "132230.140000", "132230.140000", "132230.140000", "132230.156000", "132230.156000", "132230.156000", "132230.156000", "132230.171000", "132230.171000", "132230.171000", "132230.171000", "132230.171000", "132230.171000", "132230.171000", "132230.187000", "132230.187000", "132230.187000", "132230.187000", "132230.187000", "132230.187000", "132250.140000", "132250.140000", "132250.140000", "132250.156000", "132250.156000", "132250.156000", "132250.156000", "132250.156000", "132250.156000", "132250.156000", "132250.171000", "132250.171000", "132250.171000", "132250.171000", "132250.171000", "132250.171000", "132250.171000", "132250.171000", "132250.187000", "132250.187000", "132310.140000", "132310.140000", "132310.140000", "132310.156000", "132310.156000", "132310.156000", "132310.156000", "132310.156000", "132310.156000", "132310.156000", "132310.171000", "132310.171000", "132310.171000", "132310.171000", "132310.171000", "132310.171000", "132310.171000", "132310.187000", "132310.187000", "132310.187000", "132330.140000", "132330.140000", "132330.140000", "132330.156000", "132330.156000", "132330.156000", "132330.156000", "132330.156000", "132330.156000", "132330.156000", "132330.156000", "132330.171000", "132330.171000", "132330.171000", "132330.171000", "132330.171000", "132330.171000", "132330.171000", "132330.187000", "132330.187000", "132350.140000", "132350.140000", "132350.140000", "132350.156000", "132350.156000", "132350.156000", "132350.156000", "132350.156000", "132350.156000", "132350.156000", "132350.156000", "132350.171000", "132350.171000", "132350.171000", "132350.171000", "132350.171000", "132350.171000", "132350.187000", "132350.187000", "132350.187000", "132410.140000", "132410.140000", "132410.140000", "132410.156000", "132410.156000", "132410.156000", "132410.156000", "132410.156000", "132410.156000", "132410.171000", "132410.171000", "132410.171000", "132410.171000", "132410.171000", "132410.171000", "132410.171000", "132410.187000", "132410.187000", "132410.187000", "132410.187000", "132430.140000", "132430.140000", "132430.140000", "132430.156000", "132430.156000", "132430.156000", "132430.156000", "132430.156000", "132430.156000", "132430.156000", "132430.156000", "132430.171000", "132430.171000", "132430.171000", "132430.171000", "132430.171000", "132430.171000", "132430.171000", "132430.187000", "132430.187000", "132449.515000", "132449.515000", "132449.515000", "132449.515000", "132449.515000", "132449.531000", "132449.531000", "132449.531000", "132449.531000", "132449.531000", "132449.531000", "132449.531000", "132449.546000", "132449.546000", "132449.546000"],
      "InstanceNumber": [1, 2, 3, 4, 5, 6, 7, 8, 9, 10, 11, 12, 13, 14, 15, 16, 17, 18, 19, 20, 21, 22, 23, 24, 25, 26, 27, 28, 29, 30, 31, 32, 33, 34, 35, 36, 37, 38, 39, 40, 41, 42, 43, 44, 45, 46, 47, 48, 49, 50, 51, 52, 53, 54, 55, 56, 57, 58, 59, 60, 61, 62, 63, 64, 65, 66, 67, 68, 69, 70, 71, 72, 73, 74, 75, 76, 77, 78, 79, 80, 81, 82, 83, 84, 85, 86, 87, 88, 89, 90, 91, 92, 93, 94, 95, 96, 97, 98, 99, 100, 101, 102, 103, 104, 105, 106, 107, 108, 109, 110, 111, 112, 113, 114, 115, 116, 117, 118, 119, 120, 121, 122, 123, 124, 125, 126, 127, 128, 129, 130, 131, 132, 133, 134, 135, 136, 137, 138, 139, 140, 141, 142, 143, 144, 145, 146, 147, 148, 149, 150, 151, 152, 153, 154, 155, 156, 157, 158, 159, 160, 161, 162, 163, 164, 165, 166, 167, 168, 169, 170, 171, 172, 173, 174, 175, 176, 177, 178, 179, 180, 181, 182, 183, 184, 185, 186, 187, 188, 189, 190, 191, 192, 193, 194, 195, 196, 197, 198, 199, 200, 201, 202, 203, 204, 205, 206, 207, 208, 209, 210, 211, 212, 213, 214, 215, 216, 217, 218, 219, 220, 221, 222, 223, 224, 225, 226, 227, 228, 229, 230, 231, 232, 233, 234, 235, 236, 237, 238, 239, 240, 241, 242, 243, 244, 245, 246, 247, 248, 249, 250, 251, 252, 253, 254, 255, 256, 257, 258, 259, 260, 261, 262, 263, 264, 265, 266, 267, 268, 269, 270, 271, 272, 273, 274, 275, 276, 277, 278, 279, 280, 281, 282, 283, 284, 285, 286, 287, 288, 289, 290, 291, 292, 293, 294, 295, 296, 297, 298, 299, 300, 301, 302, 303, 304, 305, 306, 307, 308, 309, 310, 311, 312, 313, 314, 315, 316, 317, 318, 319, 320, 321, 322, 323, 324, 325, 326, 327, 328, 329, 330],
      "LargestImagePixelValue": [1896, 1885, 1892, 1828, 1832, 1874, 1831, 1816, 1867, 1857, 1815, 1800, 1864, 1851, 1834, 1863, 1883, 1850, 1892, 1905, 1850, 1854, 1903, 1878, 1860, 1838, 1846, 1874, 1905, 1893, 1866, 1888, 1851, 1876, 1886, 1882, 1896, 1868, 1884, 1884, 1862, 1857, 1877, 1889, 1869, 1891, 1901, 1861, 1888, 1891, 1891, 1859, 1876, 1897, 1906, 1866, 1874, 1849, 1866, 1884, 1873, 1857, 1868, 1880, 1888, 1867, 1922, 1873, 1898, 1939, 1891, 1869, 1892, 1906, 1913, 1916, 1902, 1896, 1898, 1912, 1931, 1888, 1907, 1898, 1913, 1883, 1902, 1900, 1906, 1898, 1873, 1872, 1913, 1894, 1923, 1924, 1901, 1912, 1934, 1893, 1865, 1887, 1892, 1893, 1906, 1888, 1896, 1865, 1877, 1902, 1872, 1884, 1870, 1849, 1887, 1901, 1882, 1885, 1907, 1888, 1873, 1896, 1891, 1910, 1882, 1876, 1842, 1899, 1889, 1900, 1895, 1874, 1904, 1872, 1888, 1864, 1899, 1852, 1925, 1925, 1911, 1912, 1922, 1928, 1885, 1900, 1886, 1890, 1867, 1927, 1943, 1915, 1915, 1903, 1914, 1894, 1921, 1926, 1888, 1902, 1915, 1887, 1872, 1890, 1944, 1930, 1875, 1883, 1910, 1942, 1883, 1896, 1918, 1895, 1917, 1898, 1891, 1897, 1875, 1898, 1891, 1893, 1884, 1899, 1939, 1942, 1890, 1925, 1896, 1913, 1913, 1908, 1892, 1922, 1895, 1901, 1857, 1846, 1921, 1890, 1901, 1889, 1895, 1920, 1910, 1884, 1889, 1919, 1896, 1933, 1926, 1931, 1933, 1945, 1974, 1955, 1902, 1912, 1881, 1930, 1914, 1913, 1931, 1921, 1915, 1949, 1963, 1920, 1976, 1976, 1980, 1941, 1976, 1970, 1937, 1950, 1942, 1930, 1928, 1962, 1971, 1965, 1977, 1939, 1945, 1961, 1954, 1922, 1936, 1979, 1975, 2020, 1989, 1992, 1994, 1996, 1982, 2015, 1995, 1991, 1949, 1948, 1973, 1974, 2013, 2003, 1969, 1981, 1981, 1982, 1969, 1998, 2008, 1969, 1979, 1973, 1984, 1977, 1954, 1990, 1935, 1953, 1993, 1973, 1903, 1878, 1912, 1891, 1883, 1887, 1884, 1876, 1884, 1895, 1862, 1882, 1893, 1871, 1900, 1904, 1876, 1873, 1877, 1864, 1882, 1895, 1890, 1908, 1889, 1934, 1909, 1858, 1910, 1884, 1881, 1891, 1892, 1860, 1888, 1932, 1885, 1900, 1918, 1870, 1902, 1876, 1888, 1895, 1895, 1920],
      "WindowCenter": [427.0, 428.0, 428.0, 426.0, 427.0, 427.0, 426.0, 425.0, 425.0, 425.0, 424.0, 424.0, 425.0, 425.0, 425.0, 426.0, 427.0, 427.0, 429.0, 428.0, 428.0, 428.0, 427.0, 426.0, 425.0, 426.0, 426.0, 427.0, 428.0, 427.0, 426.0, 426.0, 426.0, 426.0, 427.0, 428.0, 429.0, 429.0, 429.0, 429.0, 428.0, 428.0, 429.0, 429.0, 429.0, 429.0, 427.0, 426.0, 426.0, 427.0, 427.0, 427.0, 428.0, 428.0, 427.0, 427.0, 428.0, 427.0, 427.0, 428.0, 428.0, 427.0, 427.0, 428.0, 427.0, 427.0, 428.0, 428.0, 429.0, 430.0, 429.0, 428.0, 429.0, 428.0, 428.0, 429.0, 429.0, 427.0, 427.0, 428.0, 429.0, 429.0, 430.0, 430.0, 429.0, 429.0, 428.0, 428.0, 427.0, 427.0, 427.0, 427.0, 428.0, 429.0, 431.0, 431.0, 430.0, 429.0, 429.0, 428.0, 428.0, 428.0, 429.0, 429.0, 429.0, 428.0, 428.0, 427.0, 427.0, 428.0, 428.0, 427.0, 427.0, 428.0, 429.0, 429.0, 429.0, 429.0, 428.0, 427.0, 427.0, 428.0, 428.0, 427.0, 427.0, 427.0, 427.0, 427.0, 429.0, 429.0, 430.0, 430.0, 429.0, 429.0, 429.0, 428.0, 428.0, 427.0, 429.0, 429.0, 430.0, 430.0, 429.0, 429.0, 428.0, 427.0, 427.0, 427.0, 427.0, 428.0, 429.0, 428.0, 428.0, 427.0, 427.0, 427.0, 428.0, 428.0, 427.0, 427.0, 428.0, 427.0, 427.0, 427.0, 428.0, 429.0, 428.0, 428.0, 430.0, 429.0, 428.0, 429.0, 429.0, 429.0, 429.0, 429.0, 428.0, 428.0, 427.0, 427.0, 427.0, 427.0, 428.0, 429.0, 429.0, 429.0, 429.0, 429.0, 429.0, 428.0, 429.0, 429.0, 429.0, 430.0, 430.0, 430.0, 429.0, 428.0, 429.0, 429.0, 429.0, 429.0, 429.0, 428.0, 427.0, 427.0, 427.0, 427.0, 428.0, 429.0, 430.0, 431.0, 430.0, 429.0, 429.0, 426.0, 425.0, 425.0, 426.0, 428.0, 429.0, 429.0, 429.0, 429.0, 429.0, 429.0, 429.0, 428.0, 429.0, 428.0, 427.0, 427.0, 428.0, 426.0, 426.0, 426.0, 427.0, 427.0, 428.0, 429.0, 429.0, 429.0, 429.0, 429.0, 429.0, 429.0, 429.0, 429.0, 429.0, 429.0, 430.0, 431.0, 430.0, 430.0, 430.0, 429.0, 428.0, 428.0, 428.0, 428.0, 429.0, 429.0, 429.0, 429.0, 429.0, 429.0, 429.0, 429.0, 429.0, 429.0, 428.0, 429.0, 429.0, 429.0, 429.0, 429.0, 430.0, 430.0, 430.0, 430.0, 429.0, 429.0, 430.0, 429.0, 430.0, 429.0, 431.0, 431.0, 430.0, 429.0, 429.0, 427.0, 427.0, 427.0, 427.0, 428.0, 429.0, 429.0, 429.0, 429.0, 428.0, 427.0, 428.0, 427.0, 427.0, 427.0, 427.0, 428.0, 429.0, 429.0, 429.0, 428.0, 428.0, 427.0, 427.0, 428.0, 427.0, 427.0, 429.0, 429.0, 428.0, 428.0, 429.0, 428.0, 428.0, 428.0, 428.0, 428.0, 429.0, 428.0],
