{
  "AcquisitionMatrixPE": 104,
  "AcquisitionNumber": 1,
  "AcquisitionTime": "13:25:44.315000",
  "BandwidthPerPixelPhaseEncode": 43.054,
  "BaseResolution": 104,
  "CoilString": "C:E1_2",
  "ConversionSoftware": "dcm2niix",
  "ConversionSoftwareVersion": "v1.0.20191031",
  "DerivedVendorReportedEchoSpacing": 0.000669999,
  "DeviceSerialNumber": "18932",
  "DwellTime": 2.8e-06,
  "EchoTime": 0.02,
  "EffectiveEchoSpacing": 0.000223333,
  "FlipAngle": 30,
  "ImageComments": "Unaliased_MB2_PE2",
  "ImageOrientationPatientDICOM": [1, 0, 0, 0, 0.992966, -0.118404],
  "ImageType": [
    "ORIGINAL",
    "PRIMARY",
    "M",
    "MB",
    "ND",
    "MOSAIC"
],
  "ImagingFrequency": 297.229,
  "InPlanePhaseEncodingDirectionDICOM": "COL",
  "InstitutionAddress": "Richmond_Street_North_1151_London_409EF2_Ontario_CA_N6A_5B7",
  "InstitutionName": "Robarts_Reserch_Institute",
  "InstitutionalDepartmentName": "Department",
  "MRAcquisitionType": "2D",
  "MagneticFieldStrength": 6.98,
  "Manufacturer": "Siemens",
  "ManufacturersModelName": "Investigational_Device_7T",
  "Modality": "MR",
  "MultibandAccelerationFactor": 2,
  "ParallelReductionFactorInPlane": 3,
  "PartialFourier": 0.875,
  "PatientPosition": "HFS",
  "PercentPhaseFOV": 100,
  "PhaseEncodingDirection": "j-",
  "PhaseEncodingSteps": 91,
  "PhaseResolution": 1,
  "PixelBandwidth": 1717,
  "ProcedureStepDescription": "Diedrichsen_SeqRep4",
  "ProtocolName": "mbep2d_bold_mb2_p3_AP_2iso",
  "PulseSequenceDetails": "%CustomerSeq%_cmrr_mbep2d_bold",
  "ReceiveCoilName": "CFMM_8Tx32Rx",
  "ReconMatrixPE": 104,
  "RefLinesPE": 36,
  "RepetitionTime": 1,
  "ScanOptions": "PFP_FS",
  "ScanningSequence": "EP",
  "SequenceName": "epfid2d1_104",
  "SequenceVariant": "SK_SS",
  "SeriesDescription": "mbep2d_bold_mb2_p3_AP_2iso",
  "SeriesNumber": 34,
  "ShimSetting": [5, 2050, 86, 1698, -41, 218, -27, -187],
  "SliceThickness": 2,
  "SliceTiming": [0, 0.2275, 0.455, 0.685, 0.9125, 0.1375, 0.365, 0.5925, 0.82, 0.045, 0.2725, 0.5025, 0.73, 0.9575, 0.1825, 0.41, 0.6375, 0.8675, 0.09, 0.32, 0.5475, 0.775, 0, 0.2275, 0.455, 0.685, 0.9125, 0.1375, 0.365, 0.5925, 0.82, 0.045, 0.2725, 0.5025, 0.73, 0.9575, 0.1825, 0.41, 0.6375, 0.8675, 0.09, 0.32, 0.5475, 0.775],
  "SoftwareVersions": "syngo_MR_B17",
  "SpacingBetweenSlices": 2,
  "StationName": "MASTER",
  "TaskName": "dsp",
  "TotalReadoutTime": 0.0230033,
  "TxRefAmp": 120,
  "dcmmeta_affine": [
    [-2.0, 0.0, 0.0, 106.1791763305664],
    [0.0, 1.9859310388565063, -0.2368079274892807, -112.17391204833984],
    [0.0, 0.2368079274892807, 1.9859310388565063, -31.579612731933594],
    [0.0, 0.0, 0.0, 1.0]
],
  "dcmmeta_reorient_transform": [
    [0.0, -1.0, 0.0, 103.0],
    [1.0, 0.0, 0.0, 0.0],
    [0.0, 0.0, 1.0, 0.0],
    [0.0, 0.0, 0.0, 1.0]
],
  "dcmmeta_shape": [104, 104, 44, 330],
  "dcmmeta_slice_dim": 2,
  "dcmmeta_version": 0.6,
  "global": {
    "const": {
      "AcquisitionMatrix": [104, 0, 0, 104],
      "AngioFlag": "N",
      "BitsAllocated": 16,
      "BitsStored": 12,
      "Columns": 728,
      "EchoNumbers": 1,
      "EchoTime": 20.0,
      "EchoTrainLength": 1,
      "FlipAngle": 30.0,
      "HighBit": 11,
      "ImageOrientationPatient": [1.0, 0.0, 0.0, 0.0, 0.99296550822323, -0.1184039673279],
      "ImagePositionPatient": [-730.1791768074, -711.98746294641, 66.695679233359],
      "ImageType": [
        "ORIGINAL",
        "PRIMARY",
        "M",
        "MB",
        "ND",
        "MOSAIC"
],
      "ImagedNucleus": "1H",
      "ImagingFrequency": 297.229015,
      "InPlanePhaseEncodingDirection": "COL",
      "MRAcquisitionType": "2D",
      "MagneticFieldStrength": 6.98,
      "Manufacturer": "SIEMENS",
      "ManufacturerModelName": "Investigational_Device_7T",
      "Modality": "MR",
      "NumberOfAverages": 1.0,
      "NumberOfPhaseEncodingSteps": 91,
      "PercentPhaseFieldOfView": 100.0,
      "PercentSampling": 100.0,
      "PerformedProcedureStepStartTime": "120509.234000",
      "PhotometricInterpretation": "MONOCHROME2",
      "PixelBandwidth": 1717.0,
      "PixelRepresentation": 0,
      "PixelSpacing": [2.0, 2.0],
      "ProtocolName": "mbep2d_bold_mb2_p3_AP 2iso",
      "RepetitionTime": 1000.0,
      "Rows": 728,
      "SAR": 0.0,
      "SamplesPerPixel": 1,
      "ScanOptions": [
        "PFP",
        "FS"
],
      "ScanningSequence": "EP",
      "SequenceName": "epfid2d1_104",
      "SequenceVariant": [
        "SK",
        "SS"
],
      "SeriesDescription": "mbep2d_bold_mb2_p3_AP 2iso",
      "SeriesNumber": 34,
      "SeriesTime": "132616.453000",
      "SliceLocation": -18.075631274307,
      "SliceThickness": 2.0,
      "SmallestImagePixelValue": 0,
      "SoftwareVersions": "syngo MR B17",
      "SpacingBetweenSlices": 1.9999999835174,
      "SpecificCharacterSet": "ISO_IR 100",
      "StudyID": "1",
      "StudyTime": "120509.171000",
      "TransmitCoilName": "CFMM_8Tx32Rx",
      "VariableFlipAngleFlag": "N",
      "WindowCenterWidthExplanation": "Algo1",
      "dBdt": 0.0},
    "slices": {}
  },
  "time": {
    "samples": {
      "AcquisitionNumber": [1, 2, 3, 4, 5, 6, 7, 8, 9, 10, 11, 12, 13, 14, 15, 16, 17, 18, 19, 20, 21, 22, 23, 24, 25, 26, 27, 28, 29, 30, 31, 32, 33, 34, 35, 36, 37, 38, 39, 40, 41, 42, 43, 44, 45, 46, 47, 48, 49, 50, 51, 52, 53, 54, 55, 56, 57, 58, 59, 60, 61, 62, 63, 64, 65, 66, 67, 68, 69, 70, 71, 72, 73, 74, 75, 76, 77, 78, 79, 80, 81, 82, 83, 84, 85, 86, 87, 88, 89, 90, 91, 92, 93, 94, 95, 96, 97, 98, 99, 100, 101, 102, 103, 104, 105, 106, 107, 108, 109, 110, 111, 112, 113, 114, 115, 116, 117, 118, 119, 120, 121, 122, 123, 124, 125, 126, 127, 128, 129, 130, 131, 132, 133, 134, 135, 136, 137, 138, 139, 140, 141, 142, 143, 144, 145, 146, 147, 148, 149, 150, 151, 152, 153, 154, 155, 156, 157, 158, 159, 160, 161, 162, 163, 164, 165, 166, 167, 168, 169, 170, 171, 172, 173, 174, 175, 176, 177, 178, 179, 180, 181, 182, 183, 184, 185, 186, 187, 188, 189, 190, 191, 192, 193, 194, 195, 196, 197, 198, 199, 200, 201, 202, 203, 204, 205, 206, 207, 208, 209, 210, 211, 212, 213, 214, 215, 216, 217, 218, 219, 220, 221, 222, 223, 224, 225, 226, 227, 228, 229, 230, 231, 232, 233, 234, 235, 236, 237, 238, 239, 240, 241, 242, 243, 244, 245, 246, 247, 248, 249, 250, 251, 252, 253, 254, 255, 256, 257, 258, 259, 260, 261, 262, 263, 264, 265, 266, 267, 268, 269, 270, 271, 272, 273, 274, 275, 276, 277, 278, 279, 280, 281, 282, 283, 284, 285, 286, 287, 288, 289, 290, 291, 292, 293, 294, 295, 296, 297, 298, 299, 300, 301, 302, 303, 304, 305, 306, 307, 308, 309, 310, 311, 312, 313, 314, 315, 316, 317, 318, 319, 320, 321, 322, 323, 324, 325, 326, 327, 328, 329, 330],
      "AcquisitionTime": ["132544.315000", "132545.317500", "132546.322500", "132547.327500", "132548.330000", "132549.335000", "132550.340000", "132551.342500", "132552.347500", "132553.350000", "132554.355000", "132555.360000", "132556.362500", "132557.367500", "132558.370000", "132559.375000", "132600.380000", "132601.382500", "132602.387500", "132603.390000", "132604.395000", "132605.400000", "132606.402500", "132607.407500", "132608.410000", "132609.415000", "132610.420000", "132611.422500", "132612.427500", "132613.430000", "132614.435000", "132615.440000", "132616.442500", "132617.447500", "132618.450000", "132619.455000", "132620.460000", "132621.462500", "132622.467500", "132623.472500", "132624.475000", "132625.480000", "132626.482500", "132627.487500", "132628.492500", "132629.495000", "132630.500000", "132631.502500", "132632.507500", "132633.512500", "132634.515000", "132635.520000", "132636.522500", "132637.527500", "132638.532500", "132639.535000", "132640.540000", "132641.542500", "132642.547500", "132643.552500", "132644.555000", "132645.560000", "132646.562500", "132647.567500", "132648.572500", "132649.575000", "132650.580000", "132651.582500", "132652.587500", "132653.592500", "132654.595000", "132655.600000", "132656.605000", "132657.607500", "132658.612500", "132659.615000", "132700.620000", "132701.625000", "132702.627500", "132703.632500", "132704.635000", "132705.640000", "132706.645000", "132707.647500", "132708.652500", "132709.655000", "132710.660000", "132711.665000", "132712.667500", "132713.672500", "132714.675000", "132715.680000", "132716.685000", "132717.687500", "132718.692500", "132719.695000", "132720.700000", "132721.705000", "132722.707500", "132723.712500", "132724.717500", "132725.720000", "132726.725000", "132727.727500", "132728.732500", "132729.737500", "132730.740000", "132731.745000", "132732.747500", "132733.752500", "132734.757500", "132735.760000", "132736.765000", "132737.767500", "132738.772500", "132739.777500", "132740.780000", "132741.785000", "132742.787500", "132743.792500", "132744.797500", "132745.800000", "132746.805000", "132747.807500", "132748.812500", "132749.817500", "132750.820000", "132751.825000", "132752.827500", "132753.832500", "132754.837500", "132755.840000", "132756.845000", "132757.850000", "132758.852500", "132759.857500", "132800.860000", "132801.865000", "132802.870000", "132803.872500", "132804.877500", "132805.880000", "132806.885000", "132807.890000", "132808.892500", "132809.897500", "132810.900000", "132811.905000", "132812.910000", "132813.912500", "132814.917500", "132815.920000", "132816.925000", "132817.930000", "132818.932500", "132819.937500", "132820.940000", "132821.945000", "132822.950000", "132823.952500", "132824.957500", "132825.960000", "132826.965000", "132827.970000", "132828.972500", "132829.977500", "132830.982500", "132831.985000", "132832.990000", "132833.992500", "132834.997500", "132836.002500", "132837.005000", "132838.010000", "132839.012500", "132840.017500", "132841.022500", "132842.025000", "132843.030000", "132844.032500", "132845.037500", "132846.042500", "132847.045000", "132848.050000", "132849.052500", "132850.057500", "132851.062500", "132852.065000", "132853.070000", "132854.072500", "132855.077500", "132856.082500", "132857.085000", "132858.090000", "132859.095000", "132900.097500", "132901.102500", "132902.105000", "132903.110000", "132904.115000", "132905.117500", "132906.122500", "132907.125000", "132908.130000", "132909.135000", "132910.137500", "132911.142500", "132912.145000", "132913.150000", "132914.155000", "132915.157500", "132916.162500", "132917.165000", "132918.170000", "132919.175000", "132920.177500", "132921.182500", "132922.185000", "132923.190000", "132924.195000", "132925.197500", "132926.202500", "132927.205000", "132928.210000", "132929.215000", "132930.217500", "132931.222500", "132932.227500", "132933.230000", "132934.235000", "132935.237500", "132936.242500", "132937.247500", "132938.250000", "132939.255000", "132940.257500", "132941.262500", "132942.267500", "132943.270000", "132944.275000", "132945.277500", "132946.282500", "132947.287500", "132948.290000", "132949.295000", "132950.297500", "132951.302500", "132952.307500", "132953.310000", "132954.315000", "132955.317500", "132956.322500", "132957.327500", "132958.330000", "132959.335000", "133000.340000", "133001.342500", "133002.347500", "133003.350000", "133004.355000", "133005.360000", "133006.362500", "133007.367500", "133008.370000", "133009.375000", "133010.380000", "133011.382500", "133012.387500", "133013.390000", "133014.395000", "133015.400000", "133016.402500", "133017.407500", "133018.410000", "133019.415000", "133020.420000", "133021.422500", "133022.427500", "133023.430000", "133024.435000", "133025.440000", "133026.442500", "133027.447500", "133028.450000", "133029.455000", "133030.460000", "133031.462500", "133032.467500", "133033.472500", "133034.475000", "133035.480000", "133036.482500", "133037.487500", "133038.492500", "133039.495000", "133040.500000", "133041.502500", "133042.507500", "133043.512500", "133044.515000", "133045.520000", "133046.522500", "133047.527500", "133048.532500", "133049.535000", "133050.540000", "133051.542500", "133052.547500", "133053.552500", "133054.555000", "133055.560000", "133056.562500", "133057.567500", "133058.572500", "133059.575000", "133100.580000", "133101.582500", "133102.587500", "133103.592500", "133104.595000", "133105.600000", "133106.605000", "133107.607500", "133108.612500", "133109.615000", "133110.620000", "133111.625000", "133112.627500", "133113.632500", "133114.635000"],
      "ContentTime": ["132616.453000", "132616.453000", "132616.453000", "132616.468000", "132616.468000", "132616.468000", "132616.468000", "132616.468000", "132616.484000", "132616.484000", "132616.484000", "132616.484000", "132616.484000", "132616.484000", "132616.484000", "132616.484000", "132616.500000", "132616.500000", "132616.500000", "132616.500000", "132616.500000", "132616.500000", "132616.500000", "132616.515000", "132616.515000", "132616.515000", "132616.515000", "132616.515000", "132616.515000", "132616.515000", "132616.531000", "132636.421000", "132636.421000", "132636.421000", "132636.437000", "132636.437000", "132636.437000", "132636.437000", "132636.437000", "132636.437000", "132636.437000", "132636.437000", "132636.453000", "132636.453000", "132636.453000", "132636.453000", "132636.453000", "132636.453000", "132636.453000", "132636.468000", "132636.468000", "132656.421000", "132656.421000", "132656.421000", "132656.437000", "132656.437000", "132656.437000", "132656.437000", "132656.437000", "132656.453000", "132656.453000", "132656.453000", "132656.453000", "132656.453000", "132656.453000", "132656.453000", "132656.468000", "132656.468000", "132656.468000", "132656.468000", "132656.468000", "132716.421000", "132716.421000", "132716.421000", "132716.437000", "132716.437000", "132716.437000", "132716.437000", "132716.437000", "132716.437000", "132716.437000", "132716.437000", "132716.453000", "132716.453000", "132716.453000", "132716.453000", "132716.453000", "132716.453000", "132716.453000", "132716.468000", "132716.468000", "132736.421000", "132736.421000", "132736.421000", "132736.437000", "132736.437000", "132736.437000", "132736.437000", "132736.437000", "132736.437000", "132736.437000", "132736.437000", "132736.453000", "132736.453000", "132736.453000", "132736.453000", "132736.453000", "132736.453000", "132736.453000", "132736.468000", "132736.468000", "132756.421000", "132756.421000", "132756.421000", "132756.437000", "132756.437000", "132756.437000", "132756.437000", "132756.437000", "132756.453000", "132756.453000", "132756.453000", "132756.453000", "132756.453000", "132756.453000", "132756.453000", "132756.453000", "132756.468000", "132756.468000", "132756.468000", "132756.468000", "132816.421000", "132816.421000", "132816.421000", "132816.437000", "132816.437000", "132816.437000", "132816.437000", "132816.437000", "132816.437000", "132816.437000", "132816.453000", "132816.453000", "132816.453000", "132816.453000", "132816.453000", "132816.453000", "132816.453000", "132816.468000", "132816.468000", "132816.468000", "132836.421000", "132836.421000", "132836.421000", "132836.437000", "132836.437000", "132836.437000", "132836.437000", "132836.437000", "132836.437000", "132836.437000", "132836.437000", "132836.453000", "132836.453000", "132836.453000", "132836.453000", "132836.468000", "132836.468000", "132836.468000", "132836.468000", "132836.468000", "132856.421000", "132856.421000", "132856.421000", "132856.437000", "132856.437000", "132856.437000", "132856.437000", "132856.437000", "132856.437000", "132856.437000", "132856.437000", "132856.453000", "132856.453000", "132856.453000", "132856.453000", "132856.453000", "132856.453000", "132856.453000", "132856.468000", "132856.468000", "132916.421000", "132916.421000", "132916.421000", "132916.437000", "132916.437000", "132916.437000", "132916.437000", "132916.437000", "132916.453000", "132916.453000", "132916.453000", "132916.453000", "132916.453000", "132916.453000", "132916.468000", "132916.468000", "132916.468000", "132916.468000", "132916.468000", "132916.468000", "132936.421000", "132936.421000", "132936.421000", "132936.437000", "132936.437000", "132936.437000", "132936.437000", "132936.437000", "132936.437000", "132936.437000", "132936.437000", "132936.453000", "132936.468000", "132936.468000", "132936.468000", "132936.468000", "132936.468000", "132936.468000", "132936.468000", "132936.484000", "132956.421000", "132956.421000", "132956.421000", "132956.437000", "132956.437000", "132956.437000", "132956.437000", "132956.437000", "132956.437000", "132956.437000", "132956.437000", "132956.453000", "132956.453000", "132956.453000", "132956.453000", "132956.453000", "132956.453000", "132956.453000", "132956.468000", "132956.468000", "133016.421000", "133016.421000", "133016.421000", "133016.437000", "133016.437000", "133016.437000", "133016.437000", "133016.437000", "133016.437000", "133016.437000", "133016.437000", "133016.453000", "133016.453000", "133016.453000", "133016.453000", "133016.453000", "133016.468000", "133016.468000", "133016.468000", "133016.468000", "133056.421000", "133056.421000", "133056.421000", "133056.437000", "133056.437000", "133056.437000", "133056.437000", "133056.437000", "133056.437000", "133056.453000", "133056.453000", "133056.453000", "133056.453000", "133056.453000", "133056.453000", "133056.453000", "133056.468000", "133056.468000", "133056.468000", "133056.468000", "133056.468000", "133056.468000", "133056.468000", "133056.468000", "133056.484000", "133056.484000", "133056.484000", "133056.484000", "133056.484000", "133056.484000", "133056.484000", "133056.500000", "133056.500000", "133056.500000", "133056.500000", "133056.500000", "133056.500000", "133056.515000", "133056.515000", "133056.515000", "133120.406000", "133120.406000", "133120.406000", "133120.406000", "133120.406000", "133120.421000", "133120.421000", "133120.421000", "133120.421000", "133120.421000", "133120.421000", "133120.421000", "133120.421000", "133120.437000", "133120.437000", "133120.437000", "133120.437000", "133120.437000", "133120.437000"],
      "InstanceCreationTime": ["132616.453000", "132616.453000", "132616.453000", "132616.468000", "132616.468000", "132616.468000", "132616.468000", "132616.468000", "132616.484000", "132616.484000", "132616.484000", "132616.484000", "132616.484000", "132616.484000", "132616.484000", "132616.484000", "132616.500000", "132616.500000", "132616.500000", "132616.500000", "132616.500000", "132616.500000", "132616.500000", "132616.515000", "132616.515000", "132616.515000", "132616.515000", "132616.515000", "132616.515000", "132616.515000", "132616.531000", "132636.421000", "132636.421000", "132636.421000", "132636.437000", "132636.437000", "132636.437000", "132636.437000", "132636.437000", "132636.437000", "132636.437000", "132636.437000", "132636.453000", "132636.453000", "132636.453000", "132636.453000", "132636.453000", "132636.453000", "132636.453000", "132636.468000", "132636.468000", "132656.421000", "132656.421000", "132656.421000", "132656.437000", "132656.437000", "132656.437000", "132656.437000", "132656.437000", "132656.453000", "132656.453000", "132656.453000", "132656.453000", "132656.453000", "132656.453000", "132656.453000", "132656.468000", "132656.468000", "132656.468000", "132656.468000", "132656.468000", "132716.421000", "132716.421000", "132716.421000", "132716.437000", "132716.437000", "132716.437000", "132716.437000", "132716.437000", "132716.437000", "132716.437000", "132716.437000", "132716.453000", "132716.453000", "132716.453000", "132716.453000", "132716.453000", "132716.453000", "132716.453000", "132716.468000", "132716.468000", "132736.421000", "132736.421000", "132736.421000", "132736.437000", "132736.437000", "132736.437000", "132736.437000", "132736.437000", "132736.437000", "132736.437000", "132736.437000", "132736.453000", "132736.453000", "132736.453000", "132736.453000", "132736.453000", "132736.453000", "132736.453000", "132736.468000", "132736.468000", "132756.421000", "132756.421000", "132756.421000", "132756.437000", "132756.437000", "132756.437000", "132756.437000", "132756.437000", "132756.453000", "132756.453000", "132756.453000", "132756.453000", "132756.453000", "132756.453000", "132756.453000", "132756.453000", "132756.468000", "132756.468000", "132756.468000", "132756.468000", "132816.421000", "132816.421000", "132816.421000", "132816.437000", "132816.437000", "132816.437000", "132816.437000", "132816.437000", "132816.437000", "132816.437000", "132816.453000", "132816.453000", "132816.453000", "132816.453000", "132816.453000", "132816.453000", "132816.453000", "132816.468000", "132816.468000", "132816.468000", "132836.421000", "132836.421000", "132836.421000", "132836.437000", "132836.437000", "132836.437000", "132836.437000", "132836.437000", "132836.437000", "132836.437000", "132836.437000", "132836.453000", "132836.453000", "132836.453000", "132836.453000", "132836.468000", "132836.468000", "132836.468000", "132836.468000", "132836.468000", "132856.421000", "132856.421000", "132856.421000", "132856.437000", "132856.437000", "132856.437000", "132856.437000", "132856.437000", "132856.437000", "132856.437000", "132856.437000", "132856.453000", "132856.453000", "132856.453000", "132856.453000", "132856.453000", "132856.453000", "132856.453000", "132856.468000", "132856.468000", "132916.421000", "132916.421000", "132916.421000", "132916.437000", "132916.437000", "132916.437000", "132916.437000", "132916.437000", "132916.453000", "132916.453000", "132916.453000", "132916.453000", "132916.453000", "132916.453000", "132916.468000", "132916.468000", "132916.468000", "132916.468000", "132916.468000", "132916.468000", "132936.421000", "132936.421000", "132936.421000", "132936.437000", "132936.437000", "132936.437000", "132936.437000", "132936.437000", "132936.437000", "132936.437000", "132936.437000", "132936.453000", "132936.468000", "132936.468000", "132936.468000", "132936.468000", "132936.468000", "132936.468000", "132936.468000", "132936.484000", "132956.421000", "132956.421000", "132956.421000", "132956.437000", "132956.437000", "132956.437000", "132956.437000", "132956.437000", "132956.437000", "132956.437000", "132956.437000", "132956.453000", "132956.453000", "132956.453000", "132956.453000", "132956.453000", "132956.453000", "132956.453000", "132956.468000", "132956.468000", "133016.421000", "133016.421000", "133016.421000", "133016.437000", "133016.437000", "133016.437000", "133016.437000", "133016.437000", "133016.437000", "133016.437000", "133016.437000", "133016.453000", "133016.453000", "133016.453000", "133016.453000", "133016.453000", "133016.468000", "133016.468000", "133016.468000", "133016.468000", "133056.421000", "133056.421000", "133056.421000", "133056.437000", "133056.437000", "133056.437000", "133056.437000", "133056.437000", "133056.437000", "133056.453000", "133056.453000", "133056.453000", "133056.453000", "133056.453000", "133056.453000", "133056.453000", "133056.468000", "133056.468000", "133056.468000", "133056.468000", "133056.468000", "133056.468000", "133056.468000", "133056.468000", "133056.484000", "133056.484000", "133056.484000", "133056.484000", "133056.484000", "133056.484000", "133056.484000", "133056.500000", "133056.500000", "133056.500000", "133056.500000", "133056.500000", "133056.500000", "133056.515000", "133056.515000", "133056.515000", "133120.406000", "133120.406000", "133120.406000", "133120.406000", "133120.406000", "133120.421000", "133120.421000", "133120.421000", "133120.421000", "133120.421000", "133120.421000", "133120.421000", "133120.421000", "133120.437000", "133120.437000", "133120.437000", "133120.437000", "133120.437000", "133120.437000"],
      "InstanceNumber": [1, 2, 3, 4, 5, 6, 7, 8, 9, 10, 11, 12, 13, 14, 15, 16, 17, 18, 19, 20, 21, 22, 23, 24, 25, 26, 27, 28, 29, 30, 31, 32, 33, 34, 35, 36, 37, 38, 39, 40, 41, 42, 43, 44, 45, 46, 47, 48, 49, 50, 51, 52, 53, 54, 55, 56, 57, 58, 59, 60, 61, 62, 63, 64, 65, 66, 67, 68, 69, 70, 71, 72, 73, 74, 75, 76, 77, 78, 79, 80, 81, 82, 83, 84, 85, 86, 87, 88, 89, 90, 91, 92, 93, 94, 95, 96, 97, 98, 99, 100, 101, 102, 103, 104, 105, 106, 107, 108, 109, 110, 111, 112, 113, 114, 115, 116, 117, 118, 119, 120, 121, 122, 123, 124, 125, 126, 127, 128, 129, 130, 131, 132, 133, 134, 135, 136, 137, 138, 139, 140, 141, 142, 143, 144, 145, 146, 147, 148, 149, 150, 151, 152, 153, 154, 155, 156, 157, 158, 159, 160, 161, 162, 163, 164, 165, 166, 167, 168, 169, 170, 171, 172, 173, 174, 175, 176, 177, 178, 179, 180, 181, 182, 183, 184, 185, 186, 187, 188, 189, 190, 191, 192, 193, 194, 195, 196, 197, 198, 199, 200, 201, 202, 203, 204, 205, 206, 207, 208, 209, 210, 211, 212, 213, 214, 215, 216, 217, 218, 219, 220, 221, 222, 223, 224, 225, 226, 227, 228, 229, 230, 231, 232, 233, 234, 235, 236, 237, 238, 239, 240, 241, 242, 243, 244, 245, 246, 247, 248, 249, 250, 251, 252, 253, 254, 255, 256, 257, 258, 259, 260, 261, 262, 263, 264, 265, 266, 267, 268, 269, 270, 271, 272, 273, 274, 275, 276, 277, 278, 279, 280, 281, 282, 283, 284, 285, 286, 287, 288, 289, 290, 291, 292, 293, 294, 295, 296, 297, 298, 299, 300, 301, 302, 303, 304, 305, 306, 307, 308, 309, 310, 311, 312, 313, 314, 315, 316, 317, 318, 319, 320, 321, 322, 323, 324, 325, 326, 327, 328, 329, 330],
      "LargestImagePixelValue": [1990, 1926, 1956, 1948, 1868, 1995, 2006, 1916, 1946, 2002, 1961, 1951, 2027, 1930, 1955, 2043, 2010, 1974, 1972, 1999, 1981, 2016, 2002, 1963, 2017, 2078, 2007, 2001, 1990, 1979, 1958, 2029, 2014, 1948, 2002, 2024, 1969, 2017, 1998, 1978, 2024, 1998, 1985, 1986, 1995, 2060, 2043, 1965, 2028, 2014, 1980, 2027, 2075, 1993, 2022, 2036, 1987, 2023, 1969, 1984, 2002, 1949, 1956, 2012, 1984, 2041, 2027, 1986, 1980, 2028, 2004, 2038, 1980, 1974, 2054, 2030, 2018, 2064, 1977, 1964, 1988, 2022, 2005, 1935, 1925, 2077, 2132, 2044, 1898, 1912, 1937, 1951, 1890, 1939, 1942, 1876, 1843, 1799, 1808, 1862, 1833, 1862, 1878, 1862, 1873, 1872, 1887, 1900, 1842, 1854, 1937, 1868, 1838, 1824, 1835, 1826, 1815, 1822, 1837, 1852, 1845, 1859, 1843, 1845, 1857, 1853, 1833, 1865, 1830, 1861, 1906, 1875, 1823, 1844, 1883, 1871, 1851, 1842, 1826, 1841, 1866, 1835, 1812, 1846, 1834, 1881, 1866, 1848, 1841, 1849, 1827, 1816, 1823, 1833, 1834, 1844, 1847, 1835, 1832, 1820, 1850, 1835, 1856, 1838, 1854, 1826, 1849, 1821, 1832, 1849, 1861, 1851, 1837, 1831, 1835, 1848, 1815, 1794, 1802, 1847, 1847, 1871, 1855, 1842, 1856, 1840, 1829, 1831, 1815, 1843, 1845, 1822, 1824, 1808, 1850, 1840, 1799, 1820, 1821, 1833, 1841, 1832, 1865, 1845, 1831, 1838, 1834, 1854, 1827, 1834, 1839, 1826, 1820, 1812, 1857, 1843, 1850, 1827, 1854, 1834, 1834, 1831, 1833, 1836, 1813, 1813, 1835, 1864, 1806, 2034, 2091, 2079, 2145, 2103, 2055, 2110, 2121, 2081, 2061, 2091, 2029, 2002, 2058, 1996, 2039, 2091, 2069, 2027, 1979, 2040, 1983, 2017, 2087, 2040, 2088, 2047, 2052, 2062, 2035, 2052, 1978, 1934, 1978, 1965, 2075, 2092, 2039, 2084, 2059, 2032, 2052, 2020, 2039, 2000, 2051, 2015, 2049, 2020, 2078, 2038, 2025, 2021, 2031, 2058, 2078, 2083, 2081, 2124, 2024, 2070, 2090, 2063, 2028, 2048, 2031, 2040, 2054, 2032, 2023, 2035, 2042, 2019, 2002, 1982, 1984, 1992, 2044, 2045, 2002, 1978, 2040, 2013, 2038, 2032, 2024, 2009, 1981, 1956, 1918, 1900, 1931, 1976, 1886, 1879, 1924, 1864, 1899, 1927, 1851, 1868],
      "WindowCenter": [426.0, 425.0, 424.0, 424.0, 423.0, 424.0, 424.0, 423.0, 424.0, 424.0, 423.0, 424.0, 424.0, 423.0, 424.0, 424.0, 423.0, 423.0, 422.0, 422.0, 423.0, 423.0, 422.0, 423.0, 423.0, 423.0, 423.0, 423.0, 422.0, 422.0, 422.0, 423.0, 423.0, 424.0, 424.0, 424.0, 423.0, 423.0, 423.0, 422.0, 423.0, 423.0, 423.0, 423.0, 423.0, 423.0, 423.0, 423.0, 424.0, 424.0, 424.0, 423.0, 424.0, 423.0, 424.0, 424.0, 423.0, 423.0, 421.0, 421.0, 420.0, 420.0, 421.0, 422.0, 423.0, 424.0, 423.0, 423.0, 423.0, 423.0, 423.0, 423.0, 422.0, 423.0, 424.0, 424.0, 424.0, 423.0, 422.0, 423.0, 422.0, 423.0, 423.0, 424.0, 424.0, 425.0, 426.0, 425.0, 423.0, 423.0, 423.0, 424.0, 423.0, 422.0, 420.0, 419.0, 417.0, 418.0, 420.0, 422.0, 423.0, 425.0, 425.0, 424.0, 425.0, 425.0, 425.0, 425.0, 425.0, 425.0, 423.0, 422.0, 421.0, 420.0, 421.0, 422.0, 423.0, 423.0, 425.0, 425.0, 424.0, 423.0, 423.0, 423.0, 423.0, 423.0, 423.0, 423.0, 423.0, 424.0, 423.0, 423.0, 422.0, 423.0, 423.0, 424.0, 424.0, 423.0, 423.0, 423.0, 423.0, 423.0, 424.0, 425.0, 425.0, 425.0, 424.0, 423.0, 423.0, 423.0, 422.0, 423.0, 423.0, 424.0, 424.0, 425.0, 424.0, 423.0, 424.0, 424.0, 425.0, 425.0, 426.0, 425.0, 424.0, 424.0, 423.0, 423.0, 423.0, 423.0, 423.0, 422.0, 423.0, 422.0, 423.0, 423.0, 423.0, 424.0, 425.0, 428.0, 428.0, 428.0, 427.0, 426.0, 425.0, 424.0, 423.0, 423.0, 423.0, 422.0, 422.0, 422.0, 421.0, 422.0, 423.0, 423.0, 423.0, 424.0, 424.0, 424.0, 424.0, 424.0, 423.0, 423.0, 423.0, 423.0, 424.0, 425.0, 424.0, 425.0, 425.0, 424.0, 425.0, 425.0, 426.0, 424.0, 424.0, 422.0, 422.0, 421.0, 422.0, 423.0, 423.0, 425.0, 427.0, 427.0, 427.0, 428.0, 427.0, 429.0, 429.0, 428.0, 428.0, 428.0, 426.0, 425.0, 424.0, 422.0, 420.0, 420.0, 421.0, 422.0, 423.0, 424.0, 427.0, 428.0, 428.0, 429.0, 428.0, 428.0, 427.0, 427.0, 427.0, 426.0, 427.0, 427.0, 427.0, 426.0, 426.0, 426.0, 425.0, 425.0, 426.0, 425.0, 428.0, 428.0, 428.0, 429.0, 428.0, 428.0, 426.0, 426.0, 427.0, 426.0, 426.0, 426.0, 426.0, 426.0, 426.0, 426.0, 426.0, 426.0, 426.0, 426.0, 428.0, 426.0, 427.0, 428.0, 427.0, 428.0, 428.0, 427.0, 427.0, 426.0, 425.0, 425.0, 425.0, 425.0, 425.0, 425.0, 425.0, 425.0, 425.0, 425.0, 424.0, 424.0, 425.0, 426.0, 427.0, 428.0, 428.0, 427.0, 427.0, 426.0, 426.0, 426.0, 426.0, 426.0, 425.0, 425.0, 426.0, 424.0, 424.0, 424.0, 424.0, 423.0, 424.0, 424.0, 424.0, 425.0],
