{
  "AcquisitionMatrixPE": 104,
  "AcquisitionNumber": 1,
  "AcquisitionTime": "11:26:53.557500",
  "BandwidthPerPixelPhaseEncode": 43.054,
  "BaseResolution": 104,
  "CoilString": "C:E1_2",
  "ConversionSoftware": "dcm2niix",
  "ConversionSoftwareVersion": "v1.0.20191031",
  "DerivedVendorReportedEchoSpacing": 0.000669999,
  "DeviceSerialNumber": "18932",
  "DwellTime": 2.8e-06,
  "EchoTime": 0.02,
  "EffectiveEchoSpacing": 0.000223333,
  "FlipAngle": 30,
  "ImageComments": "Unaliased_MB2_PE2",
  "ImageOrientationPatientDICOM": [1, 0, 0, 0, 0.997916, -0.0645323],
  "ImageType": [
    "ORIGINAL",
    "PRIMARY",
    "M",
    "MB",
    "ND",
    "MOSAIC"
],
  "ImagingFrequency": 297.229,
  "InPlanePhaseEncodingDirectionDICOM": "COL",
  "InstitutionAddress": "Richmond_Street_North_1151_London_409EF2_Ontario_CA_N6A_5B7",
  "InstitutionName": "Robarts_Reserch_Institute",
  "InstitutionalDepartmentName": "Department",
  "MRAcquisitionType": "2D",
  "MagneticFieldStrength": 6.98,
  "Manufacturer": "Siemens",
  "ManufacturersModelName": "Investigational_Device_7T",
  "Modality": "MR",
  "MultibandAccelerationFactor": 2,
  "ParallelReductionFactorInPlane": 3,
  "PartialFourier": 0.875,
  "PatientPosition": "HFS",
  "PercentPhaseFOV": 100,
  "PhaseEncodingDirection": "j-",
  "PhaseEncodingSteps": 91,
  "PhaseResolution": 1,
  "PixelBandwidth": 1717,
  "ProcedureStepDescription": "Diedrichsen_SeqRep4",
  "ProtocolName": "mbep2d_bold_mb2_p3_AP_2iso",
  "PulseSequenceDetails": "%CustomerSeq%_cmrr_mbep2d_bold",
  "ReceiveCoilName": "CFMM_8Tx32Rx",
  "ReconMatrixPE": 104,
  "RefLinesPE": 36,
  "RepetitionTime": 1,
  "ScanOptions": "PFP_FS",
  "ScanningSequence": "EP",
  "SequenceName": "epfid2d1_104",
  "SequenceVariant": "SK_SS",
  "SeriesDescription": "mbep2d_bold_mb2_p3_AP_2iso",
  "SeriesNumber": 15,
  "ShimSetting": [21, 2025, 112, 1527, 162, 139, 116, -169],
  "SliceThickness": 2,
  "SliceTiming": [0, 0.2275, 0.455, 0.6825, 0.9125, 0.135, 0.365, 0.5925, 0.82, 0.045, 0.2725, 0.5, 0.73, 0.9575, 0.1825, 0.41, 0.6375, 0.865, 0.09, 0.3175, 0.5475, 0.775, 0, 0.2275, 0.455, 0.6825, 0.9125, 0.135, 0.365, 0.5925, 0.82, 0.045, 0.2725, 0.5, 0.73, 0.9575, 0.1825, 0.41, 0.6375, 0.865, 0.09, 0.3175, 0.5475, 0.775],
  "SoftwareVersions": "syngo_MR_B17",
  "SpacingBetweenSlices": 2,
  "StationName": "MASTER",
  "TaskName": "dsp",
  "TotalReadoutTime": 0.0230033,
  "TxRefAmp": 120,
  "dcmmeta_affine": [
    [-2.0, 0.0, 0.0, 110.53752899169922],
    [0.0, 1.9958312511444092, -0.12906460464000702, -93.92992401123047],
    [0.0, 0.1290646195411682, 1.9958311319351196, -24.118383407592773],
    [0.0, 0.0, 0.0, 1.0]
],
  "dcmmeta_reorient_transform": [
    [0.0, -1.0, 0.0, 103.0],
    [1.0, 0.0, 0.0, 0.0],
    [0.0, 0.0, 1.0, 0.0],
    [0.0, 0.0, 0.0, 1.0]
],
  "dcmmeta_shape": [104, 104, 44, 330],
  "dcmmeta_slice_dim": 2,
  "dcmmeta_version": 0.6,
  "global": {
    "const": {
      "AcquisitionMatrix": [104, 0, 0, 104],
      "AngioFlag": "N",
      "BitsAllocated": 16,
      "BitsStored": 12,
      "Columns": 728,
      "EchoNumbers": 1,
      "EchoTime": 20.0,
      "EchoTrainLength": 1,
      "FlipAngle": 30.0,
      "HighBit": 11,
      "ImageOrientationPatient": [1.0, 0.0, 0.0, 0.0, 0.99791561827596, -0.0645323081945],
      "ImagePositionPatient": [-734.53753042221, -734.34003680259, 29.443433329455],
      "ImageType": [
        "ORIGINAL",
        "PRIMARY",
        "M",
        "MB",
        "ND",
        "MOSAIC"
],
      "ImagedNucleus": "1H",
      "ImagingFrequency": 297.22894,
      "InPlanePhaseEncodingDirection": "COL",
      "MRAcquisitionType": "2D",
      "MagneticFieldStrength": 6.98,
      "Manufacturer": "SIEMENS",
      "ManufacturerModelName": "Investigational_Device_7T",
      "Modality": "MR",
      "NumberOfAverages": 1.0,
      "NumberOfPhaseEncodingSteps": 91,
      "PercentPhaseFieldOfView": 100.0,
      "PercentSampling": 100.0,
      "PerformedProcedureStepStartTime": "110323.750000",
      "PhotometricInterpretation": "MONOCHROME2",
      "PixelBandwidth": 1717.0,
      "PixelRepresentation": 0,
      "PixelSpacing": [2.0, 2.0],
      "ProtocolName": "mbep2d_bold_mb2_p3_AP 2iso",
      "RepetitionTime": 1000.0,
      "Rows": 728,
      "SAR": 0.0,
      "SamplesPerPixel": 1,
      "ScanOptions": [
        "PFP",
        "FS"
],
      "ScanningSequence": "EP",
      "SequenceName": "epfid2d1_104",
      "SequenceVariant": [
        "SK",
        "SS"
],
      "SeriesDescription": "mbep2d_bold_mb2_p3_AP 2iso",
      "SeriesNumber": 15,
      "SeriesTime": "112726.312000",
      "SliceLocation": -18.006595599367,
      "SliceThickness": 2.0,
      "SmallestImagePixelValue": 0,
      "SoftwareVersions": "syngo MR B17",
      "SpacingBetweenSlices": 1.9999999200773,
      "SpecificCharacterSet": "ISO_IR 100",
      "StudyID": "1",
      "StudyTime": "110323.687000",
      "TransmitCoilName": "CFMM_8Tx32Rx",
      "VariableFlipAngleFlag": "N",
      "WindowCenterWidthExplanation": "Algo1",
      "dBdt": 0.0},
    "slices": {}
  },
  "time": {
    "samples": {
      "AcquisitionNumber": [1, 2, 3, 4, 5, 6, 7, 8, 9, 10, 11, 12, 13, 14, 15, 16, 17, 18, 19, 20, 21, 22, 23, 24, 25, 26, 27, 28, 29, 30, 31, 32, 33, 34, 35, 36, 37, 38, 39, 40, 41, 42, 43, 44, 45, 46, 47, 48, 49, 50, 51, 52, 53, 54, 55, 56, 57, 58, 59, 60, 61, 62, 63, 64, 65, 66, 67, 68, 69, 70, 71, 72, 73, 74, 75, 76, 77, 78, 79, 80, 81, 82, 83, 84, 85, 86, 87, 88, 89, 90, 91, 92, 93, 94, 95, 96, 97, 98, 99, 100, 101, 102, 103, 104, 105, 106, 107, 108, 109, 110, 111, 112, 113, 114, 115, 116, 117, 118, 119, 120, 121, 122, 123, 124, 125, 126, 127, 128, 129, 130, 131, 132, 133, 134, 135, 136, 137, 138, 139, 140, 141, 142, 143, 144, 145, 146, 147, 148, 149, 150, 151, 152, 153, 154, 155, 156, 157, 158, 159, 160, 161, 162, 163, 164, 165, 166, 167, 168, 169, 170, 171, 172, 173, 174, 175, 176, 177, 178, 179, 180, 181, 182, 183, 184, 185, 186, 187, 188, 189, 190, 191, 192, 193, 194, 195, 196, 197, 198, 199, 200, 201, 202, 203, 204, 205, 206, 207, 208, 209, 210, 211, 212, 213, 214, 215, 216, 217, 218, 219, 220, 221, 222, 223, 224, 225, 226, 227, 228, 229, 230, 231, 232, 233, 234, 235, 236, 237, 238, 239, 240, 241, 242, 243, 244, 245, 246, 247, 248, 249, 250, 251, 252, 253, 254, 255, 256, 257, 258, 259, 260, 261, 262, 263, 264, 265, 266, 267, 268, 269, 270, 271, 272, 273, 274, 275, 276, 277, 278, 279, 280, 281, 282, 283, 284, 285, 286, 287, 288, 289, 290, 291, 292, 293, 294, 295, 296, 297, 298, 299, 300, 301, 302, 303, 304, 305, 306, 307, 308, 309, 310, 311, 312, 313, 314, 315, 316, 317, 318, 319, 320, 321, 322, 323, 324, 325, 326, 327, 328, 329, 330],
      "AcquisitionTime": ["112653.557500", "112654.560000", "112655.565000", "112656.570000", "112657.572500", "112658.577500", "112659.580000", "112700.585000", "112701.590000", "112702.592500", "112703.597500", "112704.600000", "112705.605000", "112706.610000", "112707.612500", "112708.617500", "112709.620000", "112710.625000", "112711.630000", "112712.632500", "112713.637500", "112714.640000", "112715.645000", "112716.650000", "112717.652500", "112718.657500", "112719.660000", "112720.665000", "112721.670000", "112722.672500", "112723.677500", "112724.680000", "112725.685000", "112726.690000", "112727.692500", "112728.697500", "112729.702500", "112730.705000", "112731.710000", "112732.712500", "112733.717500", "112734.722500", "112735.725000", "112736.730000", "112737.732500", "112738.737500", "112739.742500", "112740.745000", "112741.750000", "112742.752500", "112743.757500", "112744.762500", "112745.765000", "112746.770000", "112747.772500", "112748.777500", "112749.782500", "112750.785000", "112751.790000", "112752.792500", "112753.797500", "112754.802500", "112755.805000", "112756.810000", "112757.815000", "112758.817500", "112759.822500", "112800.825000", "112801.830000", "112802.835000", "112803.837500", "112804.842500", "112805.845000", "112806.850000", "112807.855000", "112808.857500", "112809.862500", "112810.865000", "112811.870000", "112812.875000", "112813.877500", "112814.882500", "112815.885000", "112816.890000", "112817.895000", "112818.897500", "112819.902500", "112820.905000", "112821.910000", "112822.915000", "112823.917500", "112824.922500", "112825.925000", "112826.930000", "112827.935000", "112828.937500", "112829.942500", "112830.947500", "112831.950000", "112832.955000", "112833.957500", "112834.962500", "112835.967500", "112836.970000", "112837.975000", "112838.977500", "112839.982500", "112840.987500", "112841.990000", "112842.995000", "112843.997500", "112845.002500", "112846.007500", "112847.010000", "112848.015000", "112849.017500", "112850.022500", "112851.027500", "112852.030000", "112853.035000", "112854.037500", "112855.042500", "112856.047500", "112857.050000", "112858.055000", "112859.057500", "112900.062500", "112901.067500", "112902.070000", "112903.075000", "112904.080000", "112905.082500", "112906.087500", "112907.090000", "112908.095000", "112909.100000", "112910.102500", "112911.107500", "112912.110000", "112913.115000", "112914.120000", "112915.122500", "112916.127500", "112917.130000", "112918.135000", "112919.140000", "112920.142500", "112921.147500", "112922.150000", "112923.155000", "112924.160000", "112925.162500", "112926.167500", "112927.170000", "112928.175000", "112929.180000", "112930.182500", "112931.187500", "112932.192500", "112933.195000", "112934.200000", "112935.202500", "112936.207500", "112937.212500", "112938.215000", "112939.220000", "112940.222500", "112941.227500", "112942.232500", "112943.235000", "112944.240000", "112945.242500", "112946.247500", "112947.252500", "112948.255000", "112949.260000", "112950.262500", "112951.267500", "112952.272500", "112953.275000", "112954.280000", "112955.282500", "112956.287500", "112957.292500", "112958.295000", "112959.300000", "113000.302500", "113001.307500", "113002.312500", "113003.315000", "113004.320000", "113005.325000", "113006.327500", "113007.332500", "113008.335000", "113009.340000", "113010.345000", "113011.347500", "113012.352500", "113013.355000", "113014.360000", "113015.365000", "113016.367500", "113017.372500", "113018.375000", "113019.380000", "113020.385000", "113021.387500", "113022.392500", "113023.395000", "113024.400000", "113025.405000", "113026.407500", "113027.412500", "113028.415000", "113029.420000", "113030.425000", "113031.427500", "113032.432500", "113033.437500", "113034.440000", "113035.445000", "113036.447500", "113037.452500", "113038.457500", "113039.460000", "113040.465000", "113041.467500", "113042.472500", "113043.477500", "113044.480000", "113045.485000", "113046.487500", "113047.492500", "113048.497500", "113049.500000", "113050.505000", "113051.507500", "113052.512500", "113053.517500", "113054.520000", "113055.525000", "113056.527500", "113057.532500", "113058.537500", "113059.540000", "113100.545000", "113101.547500", "113102.552500", "113103.557500", "113104.560000", "113105.565000", "113106.570000", "113107.572500", "113108.577500", "113109.580000", "113110.585000", "113111.590000", "113112.592500", "113113.597500", "113114.600000", "113115.605000", "113116.610000", "113117.612500", "113118.617500", "113119.620000", "113120.625000", "113121.630000", "113122.632500", "113123.637500", "113124.640000", "113125.645000", "113126.650000", "113127.652500", "113128.657500", "113129.660000", "113130.665000", "113131.670000", "113132.672500", "113133.677500", "113134.680000", "113135.685000", "113136.690000", "113137.692500", "113138.697500", "113139.702500", "113140.705000", "113141.710000", "113142.712500", "113143.717500", "113144.722500", "113145.725000", "113146.730000", "113147.732500", "113148.737500", "113149.742500", "113150.745000", "113151.750000", "113152.752500", "113153.757500", "113154.762500", "113155.765000", "113156.770000", "113157.772500", "113158.777500", "113159.782500", "113200.785000", "113201.790000", "113202.792500", "113203.797500", "113204.802500", "113205.805000", "113206.810000", "113207.815000", "113208.817500", "113209.822500", "113210.825000", "113211.830000", "113212.835000", "113213.837500", "113214.842500", "113215.845000", "113216.850000", "113217.855000", "113218.857500", "113219.862500", "113220.865000", "113221.870000", "113222.875000", "113223.877500"],
      "ContentTime": ["112726.312000", "112726.312000", "112726.328000", "112726.328000", "112726.328000", "112726.328000", "112726.328000", "112726.328000", "112726.328000", "112726.343000", "112726.343000", "112726.343000", "112726.343000", "112726.343000", "112726.343000", "112726.343000", "112726.359000", "112726.359000", "112726.359000", "112726.359000", "112726.359000", "112726.359000", "112726.359000", "112726.375000", "112726.375000", "112726.375000", "112726.375000", "112726.375000", "112726.375000", "112726.375000", "112726.390000", "112746.281000", "112746.281000", "112746.281000", "112746.296000", "112746.296000", "112746.296000", "112746.296000", "112746.296000", "112746.296000", "112746.312000", "112746.312000", "112746.312000", "112746.312000", "112746.312000", "112746.312000", "112746.312000", "112746.312000", "112746.328000", "112746.328000", "112746.328000", "112806.281000", "112806.281000", "112806.281000", "112806.281000", "112806.281000", "112806.296000", "112806.296000", "112806.296000", "112806.296000", "112806.296000", "112806.296000", "112806.312000", "112806.312000", "112806.312000", "112806.312000", "112806.312000", "112806.312000", "112806.328000", "112806.328000", "112806.328000", "112826.281000", "112826.281000", "112826.296000", "112826.296000", "112826.296000", "112826.296000", "112826.296000", "112826.296000", "112826.296000", "112826.312000", "112826.312000", "112826.312000", "112826.312000", "112826.312000", "112826.312000", "112826.312000", "112826.312000", "112826.328000", "112826.328000", "112826.328000", "112846.281000", "112846.281000", "112846.281000", "112846.281000", "112846.281000", "112846.296000", "112846.296000", "112846.296000", "112846.296000", "112846.296000", "112846.296000", "112846.296000", "112846.312000", "112846.312000", "112846.312000", "112846.312000", "112846.312000", "112846.312000", "112846.328000", "112846.328000", "112906.281000", "112906.281000", "112906.281000", "112906.281000", "112906.281000", "112906.296000", "112906.296000", "112906.296000", "112906.296000", "112906.296000", "112906.296000", "112906.296000", "112906.312000", "112906.312000", "112906.312000", "112906.312000", "112906.312000", "112906.312000", "112906.312000", "112906.328000", "112926.281000", "112926.281000", "112926.281000", "112926.281000", "112926.296000", "112926.296000", "112926.296000", "112926.296000", "112926.296000", "112926.296000", "112926.296000", "112926.312000", "112926.312000", "112926.312000", "112926.312000", "112926.312000", "112926.312000", "112926.312000", "112926.328000", "112926.328000", "112946.281000", "112946.281000", "112946.281000", "112946.281000", "112946.281000", "112946.296000", "112946.296000", "112946.296000", "112946.296000", "112946.296000", "112946.312000", "112946.312000", "112946.312000", "112946.312000", "112946.312000", "112946.312000", "112946.312000", "112946.312000", "112946.328000", "112946.328000", "113006.281000", "113006.281000", "113006.281000", "113006.281000", "113006.281000", "113006.296000", "113006.296000", "113006.296000", "113006.296000", "113006.296000", "113006.296000", "113006.296000", "113006.296000", "113006.312000", "113006.312000", "113006.312000", "113006.312000", "113006.312000", "113006.328000", "113006.328000", "113026.281000", "113026.281000", "113026.281000", "113026.281000", "113026.281000", "113026.296000", "113026.296000", "113026.296000", "113026.296000", "113026.312000", "113026.312000", "113026.312000", "113026.312000", "113026.312000", "113026.312000", "113026.312000", "113026.328000", "113026.328000", "113026.328000", "113026.328000", "113046.281000", "113046.281000", "113046.281000", "113046.296000", "113046.296000", "113046.296000", "113046.296000", "113046.296000", "113046.296000", "113046.312000", "113046.312000", "113046.312000", "113046.312000", "113046.312000", "113046.312000", "113046.312000", "113046.328000", "113046.328000", "113046.328000", "113046.328000", "113106.281000", "113106.281000", "113106.281000", "113106.281000", "113106.281000", "113106.296000", "113106.296000", "113106.296000", "113106.296000", "113106.296000", "113106.296000", "113106.296000", "113106.312000", "113106.312000", "113106.312000", "113106.312000", "113106.312000", "113106.312000", "113106.312000", "113106.328000", "113126.281000", "113126.281000", "113126.281000", "113126.281000", "113126.281000", "113126.296000", "113126.296000", "113126.296000", "113126.296000", "113126.296000", "113126.296000", "113126.296000", "113126.312000", "113126.312000", "113126.312000", "113126.312000", "113126.312000", "113126.312000", "113126.312000", "113126.312000", "113146.281000", "113146.281000", "113146.281000", "113146.281000", "113146.281000", "113146.296000", "113146.296000", "113146.296000", "113146.296000", "113146.296000", "113146.296000", "113146.296000", "113146.312000", "113146.312000", "113146.312000", "113146.312000", "113146.312000", "113146.312000", "113146.312000", "113146.328000", "113206.281000", "113206.281000", "113206.281000", "113206.281000", "113206.281000", "113206.296000", "113206.296000", "113206.296000", "113206.296000", "113206.296000", "113206.296000", "113206.296000", "113206.296000", "113206.312000", "113206.312000", "113206.312000", "113206.312000", "113206.312000", "113206.312000", "113206.312000", "113230.125000", "113230.140000", "113230.140000", "113230.140000", "113230.140000", "113230.140000", "113230.140000", "113230.140000", "113230.156000", "113230.156000", "113230.156000", "113230.156000", "113230.156000", "113230.156000", "113230.156000", "113230.171000", "113230.171000", "113230.171000", "113230.171000"],
      "InstanceCreationTime": ["112726.312000", "112726.312000", "112726.328000", "112726.328000", "112726.328000", "112726.328000", "112726.328000", "112726.328000", "112726.328000", "112726.343000", "112726.343000", "112726.343000", "112726.343000", "112726.343000", "112726.343000", "112726.343000", "112726.359000", "112726.359000", "112726.359000", "112726.359000", "112726.359000", "112726.359000", "112726.359000", "112726.375000", "112726.375000", "112726.375000", "112726.375000", "112726.375000", "112726.375000", "112726.375000", "112726.390000", "112746.281000", "112746.281000", "112746.281000", "112746.296000", "112746.296000", "112746.296000", "112746.296000", "112746.296000", "112746.296000", "112746.312000", "112746.312000", "112746.312000", "112746.312000", "112746.312000", "112746.312000", "112746.312000", "112746.312000", "112746.328000", "112746.328000", "112746.328000", "112806.281000", "112806.281000", "112806.281000", "112806.281000", "112806.281000", "112806.296000", "112806.296000", "112806.296000", "112806.296000", "112806.296000", "112806.296000", "112806.312000", "112806.312000", "112806.312000", "112806.312000", "112806.312000", "112806.312000", "112806.328000", "112806.328000", "112806.328000", "112826.281000", "112826.281000", "112826.296000", "112826.296000", "112826.296000", "112826.296000", "112826.296000", "112826.296000", "112826.296000", "112826.312000", "112826.312000", "112826.312000", "112826.312000", "112826.312000", "112826.312000", "112826.312000", "112826.312000", "112826.328000", "112826.328000", "112826.328000", "112846.281000", "112846.281000", "112846.281000", "112846.281000", "112846.281000", "112846.296000", "112846.296000", "112846.296000", "112846.296000", "112846.296000", "112846.296000", "112846.296000", "112846.312000", "112846.312000", "112846.312000", "112846.312000", "112846.312000", "112846.312000", "112846.328000", "112846.328000", "112906.281000", "112906.281000", "112906.281000", "112906.281000", "112906.281000", "112906.296000", "112906.296000", "112906.296000", "112906.296000", "112906.296000", "112906.296000", "112906.296000", "112906.312000", "112906.312000", "112906.312000", "112906.312000", "112906.312000", "112906.312000", "112906.312000", "112906.328000", "112926.281000", "112926.281000", "112926.281000", "112926.281000", "112926.296000", "112926.296000", "112926.296000", "112926.296000", "112926.296000", "112926.296000", "112926.296000", "112926.312000", "112926.312000", "112926.312000", "112926.312000", "112926.312000", "112926.312000", "112926.312000", "112926.328000", "112926.328000", "112946.281000", "112946.281000", "112946.281000", "112946.281000", "112946.281000", "112946.296000", "112946.296000", "112946.296000", "112946.296000", "112946.296000", "112946.312000", "112946.312000", "112946.312000", "112946.312000", "112946.312000", "112946.312000", "112946.312000", "112946.312000", "112946.328000", "112946.328000", "113006.281000", "113006.281000", "113006.281000", "113006.281000", "113006.281000", "113006.296000", "113006.296000", "113006.296000", "113006.296000", "113006.296000", "113006.296000", "113006.296000", "113006.296000", "113006.312000", "113006.312000", "113006.312000", "113006.312000", "113006.312000", "113006.328000", "113006.328000", "113026.281000", "113026.281000", "113026.281000", "113026.281000", "113026.281000", "113026.296000", "113026.296000", "113026.296000", "113026.296000", "113026.312000", "113026.312000", "113026.312000", "113026.312000", "113026.312000", "113026.312000", "113026.312000", "113026.328000", "113026.328000", "113026.328000", "113026.328000", "113046.281000", "113046.281000", "113046.281000", "113046.296000", "113046.296000", "113046.296000", "113046.296000", "113046.296000", "113046.296000", "113046.312000", "113046.312000", "113046.312000", "113046.312000", "113046.312000", "113046.312000", "113046.312000", "113046.328000", "113046.328000", "113046.328000", "113046.328000", "113106.281000", "113106.281000", "113106.281000", "113106.281000", "113106.281000", "113106.296000", "113106.296000", "113106.296000", "113106.296000", "113106.296000", "113106.296000", "113106.296000", "113106.312000", "113106.312000", "113106.312000", "113106.312000", "113106.312000", "113106.312000", "113106.312000", "113106.328000", "113126.281000", "113126.281000", "113126.281000", "113126.281000", "113126.281000", "113126.296000", "113126.296000", "113126.296000", "113126.296000", "113126.296000", "113126.296000", "113126.296000", "113126.312000", "113126.312000", "113126.312000", "113126.312000", "113126.312000", "113126.312000", "113126.312000", "113126.312000", "113146.281000", "113146.281000", "113146.281000", "113146.281000", "113146.281000", "113146.296000", "113146.296000", "113146.296000", "113146.296000", "113146.296000", "113146.296000", "113146.296000", "113146.312000", "113146.312000", "113146.312000", "113146.312000", "113146.312000", "113146.312000", "113146.312000", "113146.328000", "113206.281000", "113206.281000", "113206.281000", "113206.281000", "113206.281000", "113206.296000", "113206.296000", "113206.296000", "113206.296000", "113206.296000", "113206.296000", "113206.296000", "113206.296000", "113206.312000", "113206.312000", "113206.312000", "113206.312000", "113206.312000", "113206.312000", "113206.312000", "113230.125000", "113230.140000", "113230.140000", "113230.140000", "113230.140000", "113230.140000", "113230.140000", "113230.140000", "113230.156000", "113230.156000", "113230.156000", "113230.156000", "113230.156000", "113230.156000", "113230.156000", "113230.171000", "113230.171000", "113230.171000", "113230.171000"],
      "InstanceNumber": [1, 2, 3, 4, 5, 6, 7, 8, 9, 10, 11, 12, 13, 14, 15, 16, 17, 18, 19, 20, 21, 22, 23, 24, 25, 26, 27, 28, 29, 30, 31, 32, 33, 34, 35, 36, 37, 38, 39, 40, 41, 42, 43, 44, 45, 46, 47, 48, 49, 50, 51, 52, 53, 54, 55, 56, 57, 58, 59, 60, 61, 62, 63, 64, 65, 66, 67, 68, 69, 70, 71, 72, 73, 74, 75, 76, 77, 78, 79, 80, 81, 82, 83, 84, 85, 86, 87, 88, 89, 90, 91, 92, 93, 94, 95, 96, 97, 98, 99, 100, 101, 102, 103, 104, 105, 106, 107, 108, 109, 110, 111, 112, 113, 114, 115, 116, 117, 118, 119, 120, 121, 122, 123, 124, 125, 126, 127, 128, 129, 130, 131, 132, 133, 134, 135, 136, 137, 138, 139, 140, 141, 142, 143, 144, 145, 146, 147, 148, 149, 150, 151, 152, 153, 154, 155, 156, 157, 158, 159, 160, 161, 162, 163, 164, 165, 166, 167, 168, 169, 170, 171, 172, 173, 174, 175, 176, 177, 178, 179, 180, 181, 182, 183, 184, 185, 186, 187, 188, 189, 190, 191, 192, 193, 194, 195, 196, 197, 198, 199, 200, 201, 202, 203, 204, 205, 206, 207, 208, 209, 210, 211, 212, 213, 214, 215, 216, 217, 218, 219, 220, 221, 222, 223, 224, 225, 226, 227, 228, 229, 230, 231, 232, 233, 234, 235, 236, 237, 238, 239, 240, 241, 242, 243, 244, 245, 246, 247, 248, 249, 250, 251, 252, 253, 254, 255, 256, 257, 258, 259, 260, 261, 262, 263, 264, 265, 266, 267, 268, 269, 270, 271, 272, 273, 274, 275, 276, 277, 278, 279, 280, 281, 282, 283, 284, 285, 286, 287, 288, 289, 290, 291, 292, 293, 294, 295, 296, 297, 298, 299, 300, 301, 302, 303, 304, 305, 306, 307, 308, 309, 310, 311, 312, 313, 314, 315, 316, 317, 318, 319, 320, 321, 322, 323, 324, 325, 326, 327, 328, 329, 330],
      "LargestImagePixelValue": [1790, 1773, 1739, 1746, 1722, 1752, 1744, 1762, 1752, 1723, 1754, 1758, 1735, 1746, 1760, 1734, 1733, 1741, 1737, 1751, 1746, 1726, 1741, 1761, 1759, 1730, 1752, 1745, 1767, 1746, 1739, 1762, 1745, 1732, 1757, 1740, 1751, 1762, 1761, 1743, 1780, 1761, 1769, 1759, 1764, 1751, 1763, 1764, 1765, 1752, 1758, 1717, 1738, 1752, 1740, 1728, 1736, 1766, 1737, 1731, 1758, 1756, 1757, 1764, 1776, 1753, 1733, 1754, 1733, 1730, 1742, 1748, 1763, 1775, 1715, 1739, 1743, 1749, 1755, 1757, 1748, 1746, 1740, 1765, 1743, 1737, 1759, 1743, 1745, 1756, 1751, 1737, 1755, 1765, 1754, 1725, 1745, 1728, 1740, 1739, 1743, 1743, 1757, 1752, 1764, 1739, 1738, 1748, 1754, 1742, 1753, 1755, 1748, 1742, 1765, 1747, 1759, 1741, 1755, 1746, 1760, 1737, 1745, 1740, 1751, 1740, 1740, 1771, 1753, 1771, 1751, 1759, 1783, 1759, 1772, 1741, 1769, 1745, 1748, 1736, 1759, 1756, 1761, 1778, 1758, 1752, 1750, 1756, 1759, 1755, 1777, 1725, 1756, 1735, 1746, 1756, 1743, 1733, 1751, 1769, 1735, 1762, 1733, 1772, 1734, 1740, 1746, 1710, 1756, 1731, 1743, 1743, 1761, 1740, 1719, 1706, 1728, 1733, 1715, 1741, 1734, 1721, 1707, 1719, 1717, 1718, 1745, 1728, 1752, 1740, 1699, 1717, 1732, 1731, 1711, 1719, 1689, 1734, 1720, 1709, 1713, 1719, 1722, 1716, 1745, 1730, 1750, 1734, 1719, 1717, 1736, 1707, 1754, 1732, 1724, 1738, 1726, 1713, 1750, 1734, 1726, 1720, 1721, 1720, 1712, 1727, 1715, 1730, 1752, 1710, 1738, 1715, 1707, 1724, 1744, 1710, 1728, 1739, 1733, 1732, 1736, 1742, 1717, 1702, 1726, 1735, 1716, 1713, 1734, 1727, 1735, 1719, 1715, 1720, 1742, 1732, 1728, 1711, 1721, 1713, 1721, 1725, 1725, 1721, 1704, 1706, 1733, 1732, 1715, 1739, 1735, 1747, 1751, 1748, 1756, 1708, 1730, 1710, 1740, 1764, 1719, 1731, 1763, 1749, 1758, 1758, 1773, 1774, 1743, 1763, 1766, 1758, 1764, 1745, 1800, 1753, 1783, 1722, 1761, 1735, 1739, 1732, 1765, 1773, 1760, 1769, 1771, 1759, 1736, 1733, 1756, 1744, 1736, 1744, 1745, 1757, 1749, 1720, 1773, 1757, 1725, 1742, 1756, 1757, 1726, 1721, 1746, 1728, 1780, 1782],
      "WindowCenter": [392.0, 390.0, 389.0, 388.0, 389.0, 389.0, 389.0, 389.0, 388.0, 388.0, 388.0, 389.0, 390.0, 391.0, 391.0, 391.0, 391.0, 391.0, 391.0, 391.0, 391.0, 391.0, 390.0, 390.0, 389.0, 389.0, 389.0, 389.0, 389.0, 389.0, 390.0, 389.0, 389.0, 388.0, 389.0, 388.0, 389.0, 390.0, 390.0, 390.0, 388.0, 387.0, 388.0, 390.0, 391.0, 392.0, 392.0, 391.0, 388.0, 387.0, 388.0, 387.0, 387.0, 388.0, 389.0, 389.0, 388.0, 387.0, 387.0, 387.0, 388.0, 390.0, 390.0, 391.0, 391.0, 391.0, 390.0, 389.0, 388.0, 390.0, 391.0, 391.0, 391.0, 391.0, 392.0, 390.0, 389.0, 389.0, 388.0, 388.0, 390.0, 391.0, 392.0, 392.0, 390.0, 390.0, 390.0, 390.0, 390.0, 389.0, 389.0, 388.0, 389.0, 389.0, 390.0, 388.0, 388.0, 388.0, 390.0, 391.0, 390.0, 388.0, 388.0, 390.0, 391.0, 391.0, 392.0, 391.0, 389.0, 388.0, 389.0, 390.0, 390.0, 391.0, 391.0, 391.0, 390.0, 390.0, 390.0, 389.0, 389.0, 389.0, 389.0, 390.0, 390.0, 390.0, 390.0, 390.0, 390.0, 390.0, 390.0, 390.0, 388.0, 387.0, 388.0, 390.0, 391.0, 391.0, 391.0, 391.0, 390.0, 389.0, 389.0, 390.0, 390.0, 391.0, 391.0, 391.0, 391.0, 391.0, 391.0, 390.0, 391.0, 390.0, 390.0, 391.0, 391.0, 392.0, 390.0, 388.0, 389.0, 389.0, 390.0, 391.0, 391.0, 391.0, 391.0, 390.0, 391.0, 389.0, 389.0, 388.0, 388.0, 389.0, 389.0, 390.0, 390.0, 391.0, 391.0, 390.0, 391.0, 391.0, 391.0, 391.0, 392.0, 392.0, 392.0, 391.0, 390.0, 388.0, 387.0, 388.0, 389.0, 390.0, 391.0, 391.0, 390.0, 390.0, 390.0, 389.0, 389.0, 390.0, 391.0, 391.0, 390.0, 390.0, 390.0, 389.0, 389.0, 390.0, 391.0, 390.0, 390.0, 390.0, 388.0, 388.0, 389.0, 389.0, 390.0, 391.0, 390.0, 390.0, 389.0, 389.0, 389.0, 391.0, 391.0, 392.0, 393.0, 392.0, 391.0, 390.0, 389.0, 390.0, 391.0, 392.0, 391.0, 391.0, 391.0, 391.0, 391.0, 391.0, 390.0, 389.0, 389.0, 390.0, 391.0, 392.0, 392.0, 392.0, 392.0, 392.0, 391.0, 391.0, 392.0, 392.0, 392.0, 392.0, 391.0, 391.0, 390.0, 390.0, 390.0, 390.0, 390.0, 390.0, 391.0, 392.0, 390.0, 389.0, 390.0, 390.0, 392.0, 392.0, 393.0, 392.0, 393.0, 392.0, 392.0, 392.0, 392.0, 392.0, 391.0, 391.0, 391.0, 391.0, 392.0, 393.0, 393.0, 393.0, 393.0, 392.0, 392.0, 393.0, 393.0, 393.0, 393.0, 392.0, 392.0, 391.0, 391.0, 391.0, 391.0, 392.0, 392.0, 392.0, 392.0, 392.0, 391.0, 390.0, 391.0, 392.0, 392.0, 392.0, 391.0, 391.0, 390.0, 391.0, 391.0, 392.0, 391.0, 390.0, 391.0, 390.0, 390.0, 390.0, 390.0, 390.0, 391.0, 390.0],
