{
  "AcquisitionMatrixPE": 104,
  "AcquisitionNumber": 1,
  "AcquisitionTime": "12:00:30.357500",
  "BandwidthPerPixelPhaseEncode": 43.054,
  "BaseResolution": 104,
  "CoilString": "C:E1,2",
  "ConversionSoftware": "dcm2niix",
  "ConversionSoftwareVersion": "v1.0.20201020",
  "DerivedVendorReportedEchoSpacing": 0.000669999,
  "DeviceSerialNumber": "18932",
  "DwellTime": 2.8e-06,
  "EchoTime": 0.02,
  "EffectiveEchoSpacing": 0.000223333,
  "FlipAngle": 30,
  "ImageComments": "Unaliased MB2/PE2",
  "ImageOrientationPatientDICOM": [1, 0, 0, 0, 0.997916, -0.0645323],
  "ImageType": [
    "ORIGINAL",
    "PRIMARY",
    "M",
    "MB",
    "ND",
    "MOSAIC"
],
  "ImagingFrequency": 297.229,
  "InPlanePhaseEncodingDirectionDICOM": "COL",
  "InstitutionAddress": "Richmond Street North 1151,London /409EF2/,Ontario,CA,N6A 5B7",
  "InstitutionName": "Robarts Reserch Institute",
  "InstitutionalDepartmentName": "Department",
  "MRAcquisitionType": "2D",
  "MagneticFieldStrength": 6.98,
  "Manufacturer": "Siemens",
  "ManufacturersModelName": "Investigational_Device_7T",
  "Modality": "MR",
  "MultibandAccelerationFactor": 2,
  "ParallelReductionFactorInPlane": 3,
  "PartialFourier": 0.875,
  "PatientPosition": "HFS",
  "PercentPhaseFOV": 100,
  "PercentSampling": 100,
  "PhaseEncodingDirection": "j-",
  "PhaseEncodingSteps": 91,
  "PhaseResolution": 1,
  "PixelBandwidth": 1717,
  "ProcedureStepDescription": "Diedrichsen^SeqRep4",
  "ProtocolName": "mbep2d_bold_mb2_p3_AP 2iso",
  "PulseSequenceDetails": "%CustomerSeq%\\cmrr_mbep2d_bold",
  "ReceiveCoilName": "CFMM_8Tx32Rx",
  "ReconMatrixPE": 104,
  "RefLinesPE": 36,
  "RepetitionTime": 1,
  "ScanOptions": "PFP\\FS",
  "ScanningSequence": "EP",
  "SequenceName": "epfid2d1_104",
  "SequenceVariant": "SK\\SS",
  "SeriesDescription": "mbep2d_bold_mb2_p3_AP 2iso",
  "SeriesNumber": 4,
  "ShimSetting": [33, 2030, 91, 1483, 117, 146, 149, -124],
  "SliceThickness": 2,
  "SliceTiming": [0, 0.2275, 0.4575, 0.685, 0.9125, 0.1375, 0.365, 0.5925, 0.82, 0.045, 0.275, 0.5025, 0.73, 0.9575, 0.1825, 0.41, 0.6375, 0.8675, 0.0925, 0.32, 0.5475, 0.775, 0, 0.2275, 0.4575, 0.685, 0.9125, 0.1375, 0.365, 0.5925, 0.82, 0.045, 0.275, 0.5025, 0.73, 0.9575, 0.1825, 0.41, 0.6375, 0.8675, 0.0925, 0.32, 0.5475, 0.775],
  "SoftwareVersions": "syngo MR B17",
  "SpacingBetweenSlices": 2,
  "StationName": "MASTER",
  "TaskName": "dsp",
  "TotalReadoutTime": 0.0230033,
  "TxRefAmp": 120,
  "dcmmeta_affine": [
    [-2.0, 0.0, 0.0, 110.53752899169922],
    [0.0, 1.9958312511444092, -0.12906460464000702, -93.92992401123047],
    [0.0, 0.1290646195411682, 1.9958311319351196, -24.118383407592773],
    [0.0, 0.0, 0.0, 1.0]
],
  "dcmmeta_reorient_transform": [
    [0.0, -1.0, 0.0, 103.0],
    [1.0, 0.0, 0.0, 0.0],
    [0.0, 0.0, 1.0, 0.0],
    [0.0, 0.0, 0.0, 1.0]
],
  "dcmmeta_shape": [104, 104, 44, 330],
  "dcmmeta_slice_dim": 2,
  "dcmmeta_version": 0.6,
  "global": {
    "const": {
      "AcquisitionMatrix": [104, 0, 0, 104],
      "AngioFlag": "N",
      "BitsAllocated": 16,
      "BitsStored": 12,
      "Columns": 728,
      "EchoNumbers": 1,
      "EchoTime": 20.0,
      "EchoTrainLength": 1,
      "FlipAngle": 30.0,
      "HighBit": 11,
      "ImageOrientationPatient": [1.0, 0.0, 0.0, 0.0, 0.99791561827596, -0.0645323081945],
      "ImagePositionPatient": [-734.53753042221, -734.34003680259, 29.443433329455],
      "ImageType": [
        "ORIGINAL",
        "PRIMARY",
        "M",
        "MB",
        "ND",
        "MOSAIC"
],
      "ImagedNucleus": "1H",
      "ImagingFrequency": 297.228941,
      "InPlanePhaseEncodingDirection": "COL",
      "MRAcquisitionType": "2D",
      "MagneticFieldStrength": 6.98,
      "Manufacturer": "SIEMENS",
      "ManufacturerModelName": "Investigational_Device_7T",
      "Modality": "MR",
      "NumberOfAverages": 1.0,
      "NumberOfPhaseEncodingSteps": 91,
      "PercentPhaseFieldOfView": 100.0,
      "PercentSampling": 100.0,
      "PerformedProcedureStepStartTime": "115702.187000",
      "PhotometricInterpretation": "MONOCHROME2",
      "PixelBandwidth": 1717.0,
      "PixelRepresentation": 0,
      "PixelSpacing": [2.0, 2.0],
      "ProtocolName": "mbep2d_bold_mb2_p3_AP 2iso",
      "RepetitionTime": 1000.0,
      "Rows": 728,
      "SAR": 0.0,
      "SamplesPerPixel": 1,
      "ScanOptions": [
        "PFP",
        "FS"
],
      "ScanningSequence": "EP",
      "SequenceName": "epfid2d1_104",
      "SequenceVariant": [
        "SK",
        "SS"
],
      "SeriesDescription": "mbep2d_bold_mb2_p3_AP 2iso",
      "SeriesNumber": 4,
      "SeriesTime": "120056.031000",
      "SliceLocation": -18.006595599367,
      "SliceThickness": 2.0,
      "SmallestImagePixelValue": 0,
      "SoftwareVersions": "syngo MR B17",
      "SpacingBetweenSlices": 1.9999999200773,
      "SpecificCharacterSet": "ISO_IR 100",
      "StudyID": "2",
      "StudyTime": "115702.140000",
      "TransmitCoilName": "CFMM_8Tx32Rx",
      "VariableFlipAngleFlag": "N",
      "WindowCenterWidthExplanation": "Algo1",
      "dBdt": 0.0},
    "slices": {}
  },
  "time": {
    "samples": {
      "AcquisitionNumber": [1, 2, 3, 4, 5, 6, 7, 8, 9, 10, 11, 12, 13, 14, 15, 16, 17, 18, 19, 20, 21, 22, 23, 24, 25, 26, 27, 28, 29, 30, 31, 32, 33, 34, 35, 36, 37, 38, 39, 40, 41, 42, 43, 44, 45, 46, 47, 48, 49, 50, 51, 52, 53, 54, 55, 56, 57, 58, 59, 60, 61, 62, 63, 64, 65, 66, 67, 68, 69, 70, 71, 72, 73, 74, 75, 76, 77, 78, 79, 80, 81, 82, 83, 84, 85, 86, 87, 88, 89, 90, 91, 92, 93, 94, 95, 96, 97, 98, 99, 100, 101, 102, 103, 104, 105, 106, 107, 108, 109, 110, 111, 112, 113, 114, 115, 116, 117, 118, 119, 120, 121, 122, 123, 124, 125, 126, 127, 128, 129, 130, 131, 132, 133, 134, 135, 136, 137, 138, 139, 140, 141, 142, 143, 144, 145, 146, 147, 148, 149, 150, 151, 152, 153, 154, 155, 156, 157, 158, 159, 160, 161, 162, 163, 164, 165, 166, 167, 168, 169, 170, 171, 172, 173, 174, 175, 176, 177, 178, 179, 180, 181, 182, 183, 184, 185, 186, 187, 188, 189, 190, 191, 192, 193, 194, 195, 196, 197, 198, 199, 200, 201, 202, 203, 204, 205, 206, 207, 208, 209, 210, 211, 212, 213, 214, 215, 216, 217, 218, 219, 220, 221, 222, 223, 224, 225, 226, 227, 228, 229, 230, 231, 232, 233, 234, 235, 236, 237, 238, 239, 240, 241, 242, 243, 244, 245, 246, 247, 248, 249, 250, 251, 252, 253, 254, 255, 256, 257, 258, 259, 260, 261, 262, 263, 264, 265, 266, 267, 268, 269, 270, 271, 272, 273, 274, 275, 276, 277, 278, 279, 280, 281, 282, 283, 284, 285, 286, 287, 288, 289, 290, 291, 292, 293, 294, 295, 296, 297, 298, 299, 300, 301, 302, 303, 304, 305, 306, 307, 308, 309, 310, 311, 312, 313, 314, 315, 316, 317, 318, 319, 320, 321, 322, 323, 324, 325, 326, 327, 328, 329, 330],
      "AcquisitionTime": ["120030.357500", "120031.362500", "120032.365000", "120033.370000", "120034.372500", "120035.377500", "120036.382500", "120037.385000", "120038.390000", "120039.395000", "120040.397500", "120041.402500", "120042.405000", "120043.410000", "120044.415000", "120045.417500", "120046.422500", "120047.425000", "120048.430000", "120049.435000", "120050.437500", "120051.442500", "120052.445000", "120053.450000", "120054.455000", "120055.457500", "120056.462500", "120057.465000", "120058.470000", "120059.475000", "120100.477500", "120101.482500", "120102.485000", "120103.490000", "120104.495000", "120105.497500", "120106.502500", "120107.505000", "120108.510000", "120109.515000", "120110.517500", "120111.522500", "120112.527500", "120113.530000", "120114.535000", "120115.537500", "120116.542500", "120117.547500", "120118.550000", "120119.555000", "120120.557500", "120121.562500", "120122.567500", "120123.570000", "120124.575000", "120125.577500", "120126.582500", "120127.587500", "120128.590000", "120129.595000", "120130.597500", "120131.602500", "120132.607500", "120133.610000", "120134.615000", "120135.617500", "120136.622500", "120137.627500", "120138.630000", "120139.635000", "120140.640000", "120141.642500", "120142.647500", "120143.650000", "120144.655000", "120145.660000", "120146.662500", "120147.667500", "120148.670000", "120149.675000", "120150.680000", "120151.682500", "120152.687500", "120153.690000", "120154.695000", "120155.700000", "120156.702500", "120157.707500", "120158.710000", "120159.715000", "120200.720000", "120201.722500", "120202.727500", "120203.730000", "120204.735000", "120205.740000", "120206.742500", "120207.747500", "120208.750000", "120209.755000", "120210.760000", "120211.762500", "120212.767500", "120213.772500", "120214.775000", "120215.780000", "120216.782500", "120217.787500", "120218.792500", "120219.795000", "120220.800000", "120221.802500", "120222.807500", "120223.812500", "120224.815000", "120225.820000", "120226.822500", "120227.827500", "120228.832500", "120229.835000", "120230.840000", "120231.842500", "120232.847500", "120233.852500", "120234.855000", "120235.860000", "120236.862500", "120237.867500", "120238.872500", "120239.875000", "120240.880000", "120241.885000", "120242.887500", "120243.892500", "120244.895000", "120245.900000", "120246.905000", "120247.907500", "120248.912500", "120249.915000", "120250.920000", "120251.925000", "120252.927500", "120253.932500", "120254.935000", "120255.940000", "120256.945000", "120257.947500", "120258.952500", "120259.955000", "120300.960000", "120301.965000", "120302.967500", "120303.972500", "120304.975000", "120305.980000", "120306.985000", "120307.987500", "120308.992500", "120309.995000", "120311.000000", "120312.005000", "120313.007500", "120314.012500", "120315.017500", "120316.020000", "120317.025000", "120318.027500", "120319.032500", "120320.037500", "120321.040000", "120322.045000", "120323.047500", "120324.052500", "120325.057500", "120326.060000", "120327.065000", "120328.067500", "120329.072500", "120330.077500", "120331.080000", "120332.085000", "120333.087500", "120334.092500", "120335.097500", "120336.100000", "120337.105000", "120338.107500", "120339.112500", "120340.117500", "120341.120000", "120342.125000", "120343.127500", "120344.132500", "120345.137500", "120346.140000", "120347.145000", "120348.150000", "120349.152500", "120350.157500", "120351.160000", "120352.165000", "120353.170000", "120354.172500", "120355.177500", "120356.180000", "120357.185000", "120358.190000", "120359.192500", "120400.197500", "120401.200000", "120402.205000", "120403.210000", "120404.212500", "120405.217500", "120406.220000", "120407.225000", "120408.230000", "120409.232500", "120410.237500", "120411.240000", "120412.245000", "120413.250000", "120414.252500", "120415.257500", "120416.262500", "120417.265000", "120418.270000", "120419.272500", "120420.277500", "120421.282500", "120422.285000", "120423.290000", "120424.292500", "120425.297500", "120426.302500", "120427.305000", "120428.310000", "120429.312500", "120430.317500", "120431.322500", "120432.325000", "120433.330000", "120434.332500", "120435.337500", "120436.342500", "120437.345000", "120438.350000", "120439.352500", "120440.357500", "120441.362500", "120442.365000", "120443.370000", "120444.372500", "120445.377500", "120446.382500", "120447.385000", "120448.390000", "120449.395000", "120450.397500", "120451.402500", "120452.405000", "120453.410000", "120454.415000", "120455.417500", "120456.422500", "120457.425000", "120458.430000", "120459.435000", "120500.437500", "120501.442500", "120502.445000", "120503.450000", "120504.455000", "120505.457500", "120506.462500", "120507.465000", "120508.470000", "120509.475000", "120510.477500", "120511.482500", "120512.485000", "120513.490000", "120514.495000", "120515.497500", "120516.502500", "120517.505000", "120518.510000", "120519.515000", "120520.517500", "120521.522500", "120522.527500", "120523.530000", "120524.535000", "120525.537500", "120526.542500", "120527.547500", "120528.550000", "120529.555000", "120530.557500", "120531.562500", "120532.567500", "120533.570000", "120534.575000", "120535.577500", "120536.582500", "120537.587500", "120538.590000", "120539.595000", "120540.597500", "120541.602500", "120542.607500", "120543.610000", "120544.615000", "120545.617500", "120546.622500", "120547.627500", "120548.630000", "120549.635000", "120550.640000", "120551.642500", "120552.647500", "120553.650000", "120554.655000", "120555.660000", "120556.662500", "120557.667500", "120558.670000", "120559.675000", "120600.680000"],
      "ContentTime": ["120056.031000", "120056.031000", "120056.046000", "120056.046000", "120056.046000", "120056.046000", "120056.046000", "120056.046000", "120056.046000", "120056.046000", "120056.062000", "120056.062000", "120056.062000", "120056.062000", "120056.062000", "120056.062000", "120056.062000", "120056.078000", "120056.078000", "120056.078000", "120056.078000", "120056.078000", "120056.093000", "120056.093000", "120116.000000", "120116.000000", "120116.000000", "120116.000000", "120116.000000", "120116.000000", "120116.015000", "120116.015000", "120116.015000", "120116.015000", "120116.015000", "120116.015000", "120116.015000", "120116.031000", "120116.031000", "120116.031000", "120116.031000", "120116.031000", "120116.031000", "120116.031000", "120136.000000", "120136.000000", "120136.000000", "120136.015000", "120136.015000", "120136.015000", "120136.015000", "120136.015000", "120136.015000", "120136.015000", "120136.031000", "120136.031000", "120136.031000", "120136.031000", "120136.031000", "120136.031000", "120136.031000", "120136.046000", "120136.046000", "120136.046000", "120156.000000", "120156.000000", "120156.000000", "120156.000000", "120156.000000", "120156.000000", "120156.015000", "120156.015000", "120156.015000", "120156.015000", "120156.015000", "120156.015000", "120156.015000", "120156.015000", "120156.031000", "120156.031000", "120156.031000", "120156.031000", "120156.031000", "120156.031000", "120216.000000", "120216.000000", "120216.000000", "120216.000000", "120216.000000", "120216.000000", "120216.015000", "120216.015000", "120216.015000", "120216.015000", "120216.015000", "120216.015000", "120216.015000", "120216.031000", "120216.031000", "120216.031000", "120216.031000", "120216.031000", "120216.031000", "120216.031000", "120236.000000", "120236.000000", "120236.000000", "120236.000000", "120236.000000", "120236.000000", "120236.015000", "120236.015000", "120236.015000", "120236.015000", "120236.015000", "120236.015000", "120236.015000", "120236.031000", "120236.031000", "120236.031000", "120236.031000", "120236.031000", "120236.031000", "120236.031000", "120256.000000", "120256.000000", "120256.000000", "120256.000000", "120256.000000", "120256.000000", "120256.015000", "120256.015000", "120256.015000", "120256.015000", "120256.015000", "120256.031000", "120256.031000", "120256.031000", "120256.031000", "120256.031000", "120256.031000", "120256.031000", "120256.031000", "120256.046000", "120316.000000", "120316.000000", "120316.000000", "120316.000000", "120316.000000", "120316.000000", "120316.015000", "120316.015000", "120316.015000", "120316.015000", "120316.031000", "120316.031000", "120316.031000", "120316.031000", "120316.031000", "120316.046000", "120316.046000", "120316.046000", "120316.046000", "120316.046000", "120336.000000", "120336.000000", "120336.000000", "120336.015000", "120336.015000", "120336.015000", "120336.015000", "120336.015000", "120336.015000", "120336.015000", "120336.031000", "120336.031000", "120336.031000", "120336.031000", "120336.031000", "120336.031000", "120336.031000", "120336.046000", "120336.046000", "120336.046000", "120356.000000", "120356.000000", "120356.000000", "120356.000000", "120356.000000", "120356.000000", "120356.015000", "120356.015000", "120356.015000", "120356.015000", "120356.031000", "120356.031000", "120356.031000", "120356.031000", "120356.031000", "120356.031000", "120356.031000", "120356.046000", "120356.046000", "120356.046000", "120416.000000", "120416.000000", "120416.000000", "120416.000000", "120416.000000", "120416.000000", "120416.015000", "120416.015000", "120416.015000", "120416.015000", "120416.015000", "120416.015000", "120416.015000", "120416.031000", "120416.031000", "120416.031000", "120416.031000", "120416.031000", "120416.031000", "120416.031000", "120436.000000", "120436.000000", "120436.000000", "120436.000000", "120436.015000", "120436.015000", "120436.015000", "120436.015000", "120436.015000", "120436.015000", "120436.015000", "120436.031000", "120436.031000", "120436.031000", "120436.031000", "120436.031000", "120436.031000", "120436.031000", "120436.046000", "120436.046000", "120456.000000", "120456.000000", "120456.000000", "120456.000000", "120456.000000", "120456.015000", "120456.015000", "120456.015000", "120456.031000", "120456.031000", "120456.031000", "120456.031000", "120456.031000", "120456.031000", "120456.046000", "120456.046000", "120456.046000", "120456.046000", "120456.046000", "120456.046000", "120516.000000", "120516.000000", "120516.000000", "120516.000000", "120516.015000", "120516.015000", "120516.015000", "120516.015000", "120516.015000", "120516.015000", "120516.015000", "120516.031000", "120516.031000", "120516.031000", "120516.031000", "120516.031000", "120516.031000", "120516.031000", "120516.046000", "120516.046000", "120536.000000", "120536.000000", "120536.000000", "120536.000000", "120536.000000", "120536.000000", "120536.015000", "120536.015000", "120536.015000", "120536.015000", "120536.015000", "120536.015000", "120536.031000", "120536.031000", "120536.031000", "120536.031000", "120536.031000", "120536.031000", "120536.046000", "120536.046000", "120556.000000", "120556.000000", "120556.000000", "120556.000000", "120556.000000", "120556.000000", "120556.015000", "120556.015000", "120556.015000", "120556.015000", "120556.015000", "120556.031000", "120556.031000", "120556.031000", "120556.031000", "120556.031000", "120556.046000", "120556.046000", "120556.046000", "120556.046000", "120606.546000", "120606.562000", "120606.562000", "120606.562000", "120606.562000", "120606.562000"],
      "InstanceCreationTime": ["120056.031000", "120056.031000", "120056.046000", "120056.046000", "120056.046000", "120056.046000", "120056.046000", "120056.046000", "120056.046000", "120056.046000", "120056.062000", "120056.062000", "120056.062000", "120056.062000", "120056.062000", "120056.062000", "120056.062000", "120056.078000", "120056.078000", "120056.078000", "120056.078000", "120056.078000", "120056.093000", "120056.093000", "120116.000000", "120116.000000", "120116.000000", "120116.000000", "120116.000000", "120116.000000", "120116.015000", "120116.015000", "120116.015000", "120116.015000", "120116.015000", "120116.015000", "120116.015000", "120116.031000", "120116.031000", "120116.031000", "120116.031000", "120116.031000", "120116.031000", "120116.031000", "120136.000000", "120136.000000", "120136.000000", "120136.015000", "120136.015000", "120136.015000", "120136.015000", "120136.015000", "120136.015000", "120136.015000", "120136.031000", "120136.031000", "120136.031000", "120136.031000", "120136.031000", "120136.031000", "120136.031000", "120136.046000", "120136.046000", "120136.046000", "120156.000000", "120156.000000", "120156.000000", "120156.000000", "120156.000000", "120156.000000", "120156.015000", "120156.015000", "120156.015000", "120156.015000", "120156.015000", "120156.015000", "120156.015000", "120156.015000", "120156.031000", "120156.031000", "120156.031000", "120156.031000", "120156.031000", "120156.031000", "120216.000000", "120216.000000", "120216.000000", "120216.000000", "120216.000000", "120216.000000", "120216.015000", "120216.015000", "120216.015000", "120216.015000", "120216.015000", "120216.015000", "120216.015000", "120216.031000", "120216.031000", "120216.031000", "120216.031000", "120216.031000", "120216.031000", "120216.031000", "120236.000000", "120236.000000", "120236.000000", "120236.000000", "120236.000000", "120236.000000", "120236.015000", "120236.015000", "120236.015000", "120236.015000", "120236.015000", "120236.015000", "120236.015000", "120236.031000", "120236.031000", "120236.031000", "120236.031000", "120236.031000", "120236.031000", "120236.031000", "120256.000000", "120256.000000", "120256.000000", "120256.000000", "120256.000000", "120256.000000", "120256.015000", "120256.015000", "120256.015000", "120256.015000", "120256.015000", "120256.031000", "120256.031000", "120256.031000", "120256.031000", "120256.031000", "120256.031000", "120256.031000", "120256.031000", "120256.046000", "120316.000000", "120316.000000", "120316.000000", "120316.000000", "120316.000000", "120316.000000", "120316.015000", "120316.015000", "120316.015000", "120316.015000", "120316.031000", "120316.031000", "120316.031000", "120316.031000", "120316.031000", "120316.046000", "120316.046000", "120316.046000", "120316.046000", "120316.046000", "120336.000000", "120336.000000", "120336.000000", "120336.015000", "120336.015000", "120336.015000", "120336.015000", "120336.015000", "120336.015000", "120336.015000", "120336.031000", "120336.031000", "120336.031000", "120336.031000", "120336.031000", "120336.031000", "120336.031000", "120336.046000", "120336.046000", "120336.046000", "120356.000000", "120356.000000", "120356.000000", "120356.000000", "120356.000000", "120356.000000", "120356.015000", "120356.015000", "120356.015000", "120356.015000", "120356.031000", "120356.031000", "120356.031000", "120356.031000", "120356.031000", "120356.031000", "120356.031000", "120356.046000", "120356.046000", "120356.046000", "120416.000000", "120416.000000", "120416.000000", "120416.000000", "120416.000000", "120416.000000", "120416.015000", "120416.015000", "120416.015000", "120416.015000", "120416.015000", "120416.015000", "120416.015000", "120416.031000", "120416.031000", "120416.031000", "120416.031000", "120416.031000", "120416.031000", "120416.031000", "120436.000000", "120436.000000", "120436.000000", "120436.000000", "120436.015000", "120436.015000", "120436.015000", "120436.015000", "120436.015000", "120436.015000", "120436.015000", "120436.031000", "120436.031000", "120436.031000", "120436.031000", "120436.031000", "120436.031000", "120436.031000", "120436.046000", "120436.046000", "120456.000000", "120456.000000", "120456.000000", "120456.000000", "120456.000000", "120456.015000", "120456.015000", "120456.015000", "120456.031000", "120456.031000", "120456.031000", "120456.031000", "120456.031000", "120456.031000", "120456.046000", "120456.046000", "120456.046000", "120456.046000", "120456.046000", "120456.046000", "120516.000000", "120516.000000", "120516.000000", "120516.000000", "120516.015000", "120516.015000", "120516.015000", "120516.015000", "120516.015000", "120516.015000", "120516.015000", "120516.031000", "120516.031000", "120516.031000", "120516.031000", "120516.031000", "120516.031000", "120516.031000", "120516.046000", "120516.046000", "120536.000000", "120536.000000", "120536.000000", "120536.000000", "120536.000000", "120536.000000", "120536.015000", "120536.015000", "120536.015000", "120536.015000", "120536.015000", "120536.015000", "120536.031000", "120536.031000", "120536.031000", "120536.031000", "120536.031000", "120536.031000", "120536.046000", "120536.046000", "120556.000000", "120556.000000", "120556.000000", "120556.000000", "120556.000000", "120556.000000", "120556.015000", "120556.015000", "120556.015000", "120556.015000", "120556.015000", "120556.031000", "120556.031000", "120556.031000", "120556.031000", "120556.031000", "120556.046000", "120556.046000", "120556.046000", "120556.046000", "120606.546000", "120606.562000", "120606.562000", "120606.562000", "120606.562000", "120606.562000"],
      "InstanceNumber": [1, 2, 3, 4, 5, 6, 7, 8, 9, 10, 11, 12, 13, 14, 15, 16, 17, 18, 19, 20, 21, 22, 23, 24, 25, 26, 27, 28, 29, 30, 31, 32, 33, 34, 35, 36, 37, 38, 39, 40, 41, 42, 43, 44, 45, 46, 47, 48, 49, 50, 51, 52, 53, 54, 55, 56, 57, 58, 59, 60, 61, 62, 63, 64, 65, 66, 67, 68, 69, 70, 71, 72, 73, 74, 75, 76, 77, 78, 79, 80, 81, 82, 83, 84, 85, 86, 87, 88, 89, 90, 91, 92, 93, 94, 95, 96, 97, 98, 99, 100, 101, 102, 103, 104, 105, 106, 107, 108, 109, 110, 111, 112, 113, 114, 115, 116, 117, 118, 119, 120, 121, 122, 123, 124, 125, 126, 127, 128, 129, 130, 131, 132, 133, 134, 135, 136, 137, 138, 139, 140, 141, 142, 143, 144, 145, 146, 147, 148, 149, 150, 151, 152, 153, 154, 155, 156, 157, 158, 159, 160, 161, 162, 163, 164, 165, 166, 167, 168, 169, 170, 171, 172, 173, 174, 175, 176, 177, 178, 179, 180, 181, 182, 183, 184, 185, 186, 187, 188, 189, 190, 191, 192, 193, 194, 195, 196, 197, 198, 199, 200, 201, 202, 203, 204, 205, 206, 207, 208, 209, 210, 211, 212, 213, 214, 215, 216, 217, 218, 219, 220, 221, 222, 223, 224, 225, 226, 227, 228, 229, 230, 231, 232, 233, 234, 235, 236, 237, 238, 239, 240, 241, 242, 243, 244, 245, 246, 247, 248, 249, 250, 251, 252, 253, 254, 255, 256, 257, 258, 259, 260, 261, 262, 263, 264, 265, 266, 267, 268, 269, 270, 271, 272, 273, 274, 275, 276, 277, 278, 279, 280, 281, 282, 283, 284, 285, 286, 287, 288, 289, 290, 291, 292, 293, 294, 295, 296, 297, 298, 299, 300, 301, 302, 303, 304, 305, 306, 307, 308, 309, 310, 311, 312, 313, 314, 315, 316, 317, 318, 319, 320, 321, 322, 323, 324, 325, 326, 327, 328, 329, 330],
      "LargestImagePixelValue": [1800, 1805, 1792, 1792, 1796, 1803, 1809, 1784, 1766, 1774, 1784, 1775, 1757, 1757, 1754, 1785, 1794, 1773, 1789, 1766, 1746, 1753, 1768, 1762, 1770, 1756, 1770, 1776, 1790, 1803, 1774, 1760, 1743, 1757, 1772, 1746, 1757, 1768, 1757, 1772, 1765, 1763, 1758, 1801, 1757, 1749, 1756, 1770, 1746, 1756, 1752, 1754, 1802, 1742, 1758, 1750, 1798, 1732, 1739, 1769, 1744, 1773, 1790, 1763, 1764, 1711, 1757, 1785, 1762, 1768, 1747, 1764, 1758, 1760, 1742, 1772, 1759, 1758, 1750, 1751, 1719, 1739, 1754, 1733, 1778, 1756, 1754, 1751, 1725, 1777, 1750, 1751, 1763, 1762, 1770, 1758, 1769, 1747, 1753, 1725, 1758, 1772, 1746, 1754, 1741, 1755, 1732, 1749, 1737, 1745, 1773, 1772, 1748, 1750, 1757, 1751, 1748, 1766, 1730, 1776, 1762, 1785, 1777, 1765, 1757, 1772, 1749, 1728, 1744, 1726, 1741, 1774, 1775, 1740, 1752, 1749, 1765, 1745, 1750, 1730, 1757, 1731, 1753, 1753, 1772, 1769, 1748, 1755, 1741, 1752, 1744, 1740, 1770, 1768, 1744, 1746, 1744, 1754, 1734, 1762, 1769, 1730, 1726, 1717, 1736, 1731, 1714, 1740, 1756, 1741, 1738, 1740, 1752, 1742, 1740, 1730, 1723, 1734, 1738, 1751, 1750, 1720, 1751, 1736, 1731, 1732, 1767, 1761, 1741, 1747, 1763, 1746, 1777, 1761, 1746, 1758, 1735, 1735, 1748, 1749, 1692, 1725, 1758, 1741, 1733, 1732, 1752, 1731, 1737, 1731, 1741, 1755, 1753, 1746, 1725, 1735, 1743, 1770, 1751, 1752, 1732, 1737, 1774, 1736, 1749, 1757, 1760, 1736, 1755, 1734, 1720, 1752, 1738, 1721, 1782, 1811, 1729, 1756, 1766, 1744, 1794, 1755, 1781, 1735, 1749, 1783, 1748, 1767, 1754, 1756, 1723, 1739, 1768, 1728, 1808, 1757, 1729, 1764, 1711, 1768, 1756, 1721, 1742, 1750, 1708, 1732, 1797, 1735, 1766, 1780, 1719, 1765, 1738, 1751, 1783, 1751, 1722, 1779, 1776, 1751, 1780, 1803, 1765, 1804, 1769, 1787, 1774, 1752, 1767, 1747, 1769, 1753, 1731, 1754, 1742, 1761, 1778, 1765, 1780, 1762, 1764, 1773, 1762, 1739, 1759, 1769, 1810, 1734, 1785, 1767, 1748, 1758, 1769, 1782, 1768, 1772, 1776, 1777, 1789, 1762, 1725, 1783, 1764, 1725, 1790, 1748, 1782, 1798, 1786, 1751],
      "WindowCenter": [388.0, 387.0, 387.0, 387.0, 388.0, 386.0, 386.0, 386.0, 385.0, 385.0, 386.0, 386.0, 387.0, 388.0, 388.0, 388.0, 388.0, 388.0, 387.0, 387.0, 387.0, 387.0, 388.0, 387.0, 387.0, 386.0, 386.0, 387.0, 386.0, 388.0, 387.0, 386.0, 386.0, 387.0, 386.0, 386.0, 387.0, 387.0, 387.0, 387.0, 386.0, 386.0, 386.0, 386.0, 385.0, 386.0, 386.0, 386.0, 386.0, 385.0, 386.0, 387.0, 389.0, 388.0, 388.0, 387.0, 386.0, 385.0, 385.0, 385.0, 384.0, 385.0, 385.0, 384.0, 385.0, 385.0, 386.0, 386.0, 386.0, 386.0, 387.0, 387.0, 387.0, 386.0, 387.0, 387.0, 387.0, 387.0, 387.0, 387.0, 386.0, 386.0, 387.0, 387.0, 387.0, 387.0, 387.0, 386.0, 386.0, 386.0, 386.0, 386.0, 386.0, 387.0, 387.0, 388.0, 388.0, 388.0, 387.0, 387.0, 387.0, 388.0, 387.0, 387.0, 387.0, 387.0, 386.0, 386.0, 387.0, 388.0, 388.0, 388.0, 387.0, 387.0, 387.0, 387.0, 387.0, 386.0, 386.0, 386.0, 387.0, 389.0, 388.0, 388.0, 387.0, 386.0, 386.0, 386.0, 386.0, 386.0, 386.0, 387.0, 386.0, 387.0, 387.0, 386.0, 386.0, 386.0, 386.0, 386.0, 387.0, 388.0, 389.0, 388.0, 388.0, 388.0, 387.0, 387.0, 386.0, 387.0, 387.0, 388.0, 388.0, 388.0, 388.0, 387.0, 387.0, 387.0, 386.0, 387.0, 387.0, 386.0, 386.0, 386.0, 386.0, 387.0, 386.0, 387.0, 387.0, 388.0, 388.0, 388.0, 388.0, 388.0, 388.0, 387.0, 387.0, 387.0, 388.0, 388.0, 388.0, 388.0, 388.0, 387.0, 387.0, 387.0, 387.0, 387.0, 387.0, 386.0, 386.0, 387.0, 387.0, 387.0, 387.0, 387.0, 387.0, 387.0, 386.0, 386.0, 386.0, 387.0, 388.0, 387.0, 388.0, 388.0, 388.0, 387.0, 387.0, 387.0, 387.0, 387.0, 389.0, 390.0, 389.0, 389.0, 389.0, 388.0, 388.0, 388.0, 388.0, 388.0, 389.0, 390.0, 390.0, 390.0, 389.0, 390.0, 390.0, 388.0, 388.0, 389.0, 388.0, 389.0, 391.0, 390.0, 391.0, 391.0, 391.0, 389.0, 389.0, 388.0, 387.0, 387.0, 389.0, 389.0, 388.0, 388.0, 389.0, 389.0, 389.0, 389.0, 388.0, 387.0, 388.0, 388.0, 387.0, 389.0, 389.0, 390.0, 390.0, 388.0, 388.0, 387.0, 385.0, 385.0, 388.0, 389.0, 391.0, 390.0, 388.0, 388.0, 387.0, 387.0, 387.0, 388.0, 388.0, 388.0, 387.0, 387.0, 387.0, 387.0, 386.0, 387.0, 388.0, 388.0, 389.0, 387.0, 386.0, 386.0, 386.0, 386.0, 386.0, 386.0, 385.0, 386.0, 386.0, 386.0, 385.0, 386.0, 386.0, 387.0, 387.0, 387.0, 387.0, 388.0, 388.0, 388.0, 389.0, 388.0, 388.0, 388.0, 387.0, 387.0, 387.0, 386.0, 387.0, 388.0, 390.0, 390.0, 389.0, 389.0, 388.0, 387.0, 387.0, 387.0, 387.0, 387.0, 387.0, 388.0],
