{
  "AcquisitionMatrixPE": 104,
  "AcquisitionNumber": 1,
  "AcquisitionTime": "10:09:27.235000",
  "BandwidthPerPixelPhaseEncode": 43.054,
  "BaseResolution": 104,
  "CoilString": "C:E1_2",
  "ConversionSoftware": "dcm2niix",
  "ConversionSoftwareVersion": "v1.0.20191031",
  "DerivedVendorReportedEchoSpacing": 0.000669999,
  "DeviceSerialNumber": "18932",
  "DwellTime": 2.8e-06,
  "EchoTime": 0.02,
  "EffectiveEchoSpacing": 0.000223333,
  "FlipAngle": 30,
  "ImageComments": "Unaliased_MB2_PE2",
  "ImageOrientationPatientDICOM": [1, 0, 0, 0, 0.992546, -0.121869],
  "ImageType": [
    "ORIGINAL",
    "PRIMARY",
    "M",
    "MB",
    "ND",
    "MOSAIC"
],
  "ImagingFrequency": 297.23,
  "InPlanePhaseEncodingDirectionDICOM": "COL",
  "InstitutionAddress": "Richmond_Street_North_1151_London_409EF2_Ontario_CA_N6A_5B7",
  "InstitutionName": "Robarts_Reserch_Institute",
  "InstitutionalDepartmentName": "Department",
  "MRAcquisitionType": "2D",
  "MagneticFieldStrength": 6.98,
  "Manufacturer": "Siemens",
  "ManufacturersModelName": "Investigational_Device_7T",
  "Modality": "MR",
  "MultibandAccelerationFactor": 2,
  "ParallelReductionFactorInPlane": 3,
  "PartialFourier": 0.875,
  "PatientPosition": "HFS",
  "PercentPhaseFOV": 100,
  "PhaseEncodingDirection": "j-",
  "PhaseEncodingSteps": 91,
  "PhaseResolution": 1,
  "PixelBandwidth": 1717,
  "ProcedureStepDescription": "Diedrichsen_SeqRep4",
  "ProtocolName": "mbep2d_bold_mb2_p3_AP_2iso",
  "PulseSequenceDetails": "%CustomerSeq%_cmrr_mbep2d_bold",
  "ReceiveCoilName": "CFMM_8Tx32Rx",
  "ReconMatrixPE": 104,
  "RefLinesPE": 36,
  "RepetitionTime": 1,
  "ScanOptions": "PFP_FS",
  "ScanningSequence": "EP",
  "SequenceName": "epfid2d1_104",
  "SequenceVariant": "SK_SS",
  "SeriesDescription": "mbep2d_bold_mb2_p3_AP_2iso",
  "SeriesNumber": 31,
  "ShimSetting": [-39, 2025, 376, 241, 228, 77, -97, -67],
  "SliceThickness": 2,
  "SliceTiming": [0, 0.2275, 0.455, 0.685, 0.9125, 0.1375, 0.365, 0.5925, 0.82, 0.045, 0.2725, 0.5025, 0.73, 0.9575, 0.1825, 0.41, 0.6375, 0.8675, 0.0925, 0.32, 0.5475, 0.775, 0, 0.2275, 0.455, 0.685, 0.9125, 0.1375, 0.365, 0.5925, 0.82, 0.045, 0.2725, 0.5025, 0.73, 0.9575, 0.1825, 0.41, 0.6375, 0.8675, 0.0925, 0.32, 0.5475, 0.775],
  "SoftwareVersions": "syngo_MR_B17",
  "SpacingBetweenSlices": 2,
  "StationName": "MASTER",
  "TaskName": "dsp",
  "TotalReadoutTime": 0.0230033,
  "TxRefAmp": 120,
  "dcmmeta_affine": [
    [-2.0, 0.0, 0.0, 108.35835266113281],
    [0.0, 1.985092282295227, -0.24373869597911835, -107.62377166748047],
    [0.0, 0.24373868107795715, 1.985092282295227, -34.82061767578125],
    [0.0, 0.0, 0.0, 1.0]
],
  "dcmmeta_reorient_transform": [
    [0.0, -1.0, 0.0, 103.0],
    [1.0, 0.0, 0.0, 0.0],
    [0.0, 0.0, 1.0, 0.0],
    [0.0, 0.0, 0.0, 1.0]
],
  "dcmmeta_shape": [104, 104, 44, 330],
  "dcmmeta_slice_dim": 2,
  "dcmmeta_version": 0.6,
  "global": {
    "const": {
      "AcquisitionMatrix": [104, 0, 0, 104],
      "AngioFlag": "N",
      "BitsAllocated": 16,
      "BitsStored": 12,
      "Columns": 728,
      "EchoNumbers": 1,
      "EchoTime": 20.0,
      "EchoTrainLength": 1,
      "FlipAngle": 30.0,
      "HighBit": 11,
      "ImageOrientationPatient": [1.0, 0.0, 0.0, 0.0, 0.99254615167353, -0.1218693431428],
      "ImagePositionPatient": [-732.35835361481, -716.18953612814, 66.330935824086],
      "ImageType": [
        "ORIGINAL",
        "PRIMARY",
        "M",
        "MB",
        "ND",
        "MOSAIC"
],
      "ImagedNucleus": "1H",
      "ImagingFrequency": 297.230176,
      "InPlanePhaseEncodingDirection": "COL",
      "MRAcquisitionType": "2D",
      "MagneticFieldStrength": 6.98,
      "Manufacturer": "SIEMENS",
      "ManufacturerModelName": "Investigational_Device_7T",
      "Modality": "MR",
      "NumberOfAverages": 1.0,
      "NumberOfPhaseEncodingSteps": 91,
      "PercentPhaseFieldOfView": 100.0,
      "PercentSampling": 100.0,
      "PerformedProcedureStepStartTime": "085638.812000",
      "PhotometricInterpretation": "MONOCHROME2",
      "PixelBandwidth": 1717.0,
      "PixelRepresentation": 0,
      "PixelSpacing": [2.0, 2.0],
      "ProtocolName": "mbep2d_bold_mb2_p3_AP 2iso",
      "RepetitionTime": 1000.0,
      "Rows": 728,
      "SAR": 0.0,
      "SamplesPerPixel": 1,
      "ScanOptions": [
        "PFP",
        "FS"
],
      "ScanningSequence": "EP",
      "SequenceName": "epfid2d1_104",
      "SequenceVariant": [
        "SK",
        "SS"
],
      "SeriesDescription": "mbep2d_bold_mb2_p3_AP 2iso",
      "SeriesNumber": 31,
      "SeriesTime": "101001.843000",
      "SliceLocation": -21.445033244596,
      "SliceThickness": 2.0,
      "SmallestImagePixelValue": 0,
      "SoftwareVersions": "syngo MR B17",
      "SpacingBetweenSlices": 2.0000000380287,
      "SpecificCharacterSet": "ISO_IR 100",
      "StudyID": "1",
      "StudyTime": "085638.765000",
      "TransmitCoilName": "CFMM_8Tx32Rx",
      "VariableFlipAngleFlag": "N",
      "WindowCenterWidthExplanation": "Algo1",
      "dBdt": 0.0},
    "slices": {}
  },
  "time": {
    "samples": {
      "AcquisitionNumber": [1, 2, 3, 4, 5, 6, 7, 8, 9, 10, 11, 12, 13, 14, 15, 16, 17, 18, 19, 20, 21, 22, 23, 24, 25, 26, 27, 28, 29, 30, 31, 32, 33, 34, 35, 36, 37, 38, 39, 40, 41, 42, 43, 44, 45, 46, 47, 48, 49, 50, 51, 52, 53, 54, 55, 56, 57, 58, 59, 60, 61, 62, 63, 64, 65, 66, 67, 68, 69, 70, 71, 72, 73, 74, 75, 76, 77, 78, 79, 80, 81, 82, 83, 84, 85, 86, 87, 88, 89, 90, 91, 92, 93, 94, 95, 96, 97, 98, 99, 100, 101, 102, 103, 104, 105, 106, 107, 108, 109, 110, 111, 112, 113, 114, 115, 116, 117, 118, 119, 120, 121, 122, 123, 124, 125, 126, 127, 128, 129, 130, 131, 132, 133, 134, 135, 136, 137, 138, 139, 140, 141, 142, 143, 144, 145, 146, 147, 148, 149, 150, 151, 152, 153, 154, 155, 156, 157, 158, 159, 160, 161, 162, 163, 164, 165, 166, 167, 168, 169, 170, 171, 172, 173, 174, 175, 176, 177, 178, 179, 180, 181, 182, 183, 184, 185, 186, 187, 188, 189, 190, 191, 192, 193, 194, 195, 196, 197, 198, 199, 200, 201, 202, 203, 204, 205, 206, 207, 208, 209, 210, 211, 212, 213, 214, 215, 216, 217, 218, 219, 220, 221, 222, 223, 224, 225, 226, 227, 228, 229, 230, 231, 232, 233, 234, 235, 236, 237, 238, 239, 240, 241, 242, 243, 244, 245, 246, 247, 248, 249, 250, 251, 252, 253, 254, 255, 256, 257, 258, 259, 260, 261, 262, 263, 264, 265, 266, 267, 268, 269, 270, 271, 272, 273, 274, 275, 276, 277, 278, 279, 280, 281, 282, 283, 284, 285, 286, 287, 288, 289, 290, 291, 292, 293, 294, 295, 296, 297, 298, 299, 300, 301, 302, 303, 304, 305, 306, 307, 308, 309, 310, 311, 312, 313, 314, 315, 316, 317, 318, 319, 320, 321, 322, 323, 324, 325, 326, 327, 328, 329, 330],
      "AcquisitionTime": ["100927.235000", "100928.240000", "100929.242500", "100930.247500", "100931.250000", "100932.255000", "100933.260000", "100934.262500", "100935.267500", "100936.270000", "100937.275000", "100938.280000", "100939.282500", "100940.287500", "100941.292500", "100942.295000", "100943.300000", "100944.302500", "100945.307500", "100946.312500", "100947.315000", "100948.320000", "100949.322500", "100950.327500", "100951.332500", "100952.335000", "100953.340000", "100954.342500", "100955.347500", "100956.352500", "100957.355000", "100958.360000", "100959.362500", "101000.367500", "101001.372500", "101002.375000", "101003.380000", "101004.382500", "101005.387500", "101006.392500", "101007.395000", "101008.400000", "101009.402500", "101010.407500", "101011.412500", "101012.415000", "101013.420000", "101014.425000", "101015.427500", "101016.432500", "101017.435000", "101018.440000", "101019.445000", "101020.447500", "101021.452500", "101022.455000", "101023.460000", "101024.465000", "101025.467500", "101026.472500", "101027.475000", "101028.480000", "101029.485000", "101030.487500", "101031.492500", "101032.495000", "101033.500000", "101034.505000", "101035.507500", "101036.512500", "101037.515000", "101038.520000", "101039.525000", "101040.527500", "101041.532500", "101042.537500", "101043.540000", "101044.545000", "101045.547500", "101046.552500", "101047.557500", "101048.560000", "101049.565000", "101050.567500", "101051.572500", "101052.577500", "101053.580000", "101054.585000", "101055.587500", "101056.592500", "101057.597500", "101058.600000", "101059.605000", "101100.607500", "101101.612500", "101102.617500", "101103.620000", "101104.625000", "101105.627500", "101106.632500", "101107.637500", "101108.640000", "101109.645000", "101110.647500", "101111.652500", "101112.657500", "101113.660000", "101114.665000", "101115.670000", "101116.672500", "101117.677500", "101118.680000", "101119.685000", "101120.690000", "101121.692500", "101122.697500", "101123.700000", "101124.705000", "101125.710000", "101126.712500", "101127.717500", "101128.720000", "101129.725000", "101130.730000", "101131.732500", "101132.737500", "101133.740000", "101134.745000", "101135.750000", "101136.752500", "101137.757500", "101138.760000", "101139.765000", "101140.770000", "101141.772500", "101142.777500", "101143.782500", "101144.785000", "101145.790000", "101146.792500", "101147.797500", "101148.802500", "101149.805000", "101150.810000", "101151.812500", "101152.817500", "101153.822500", "101154.825000", "101155.830000", "101156.832500", "101157.837500", "101158.842500", "101159.845000", "101200.850000", "101201.852500", "101202.857500", "101203.862500", "101204.865000", "101205.870000", "101206.872500", "101207.877500", "101208.882500", "101209.885000", "101210.890000", "101211.892500", "101212.897500", "101213.902500", "101214.905000", "101215.910000", "101216.915000", "101217.917500", "101218.922500", "101219.925000", "101220.930000", "101221.935000", "101222.937500", "101223.942500", "101224.945000", "101225.950000", "101226.955000", "101227.957500", "101228.962500", "101229.965000", "101230.970000", "101231.975000", "101232.977500", "101233.982500", "101234.985000", "101235.990000", "101236.995000", "101237.997500", "101239.002500", "101240.005000", "101241.010000", "101242.015000", "101243.017500", "101244.022500", "101245.025000", "101246.030000", "101247.035000", "101248.037500", "101249.042500", "101250.047500", "101251.050000", "101252.055000", "101253.057500", "101254.062500", "101255.067500", "101256.070000", "101257.075000", "101258.077500", "101259.082500", "101300.087500", "101301.090000", "101302.095000", "101303.097500", "101304.102500", "101305.107500", "101306.110000", "101307.115000", "101308.117500", "101309.122500", "101310.127500", "101311.130000", "101312.135000", "101313.137500", "101314.142500", "101315.147500", "101316.150000", "101317.155000", "101318.160000", "101319.162500", "101320.167500", "101321.170000", "101322.175000", "101323.180000", "101324.182500", "101325.187500", "101326.190000", "101327.195000", "101328.200000", "101329.202500", "101330.207500", "101331.210000", "101332.215000", "101333.220000", "101334.222500", "101335.227500", "101336.230000", "101337.235000", "101338.240000", "101339.242500", "101340.247500", "101341.250000", "101342.255000", "101343.260000", "101344.262500", "101345.267500", "101346.270000", "101347.275000", "101348.280000", "101349.282500", "101350.287500", "101351.292500", "101352.295000", "101353.300000", "101354.302500", "101355.307500", "101356.312500", "101357.315000", "101358.320000", "101359.322500", "101400.327500", "101401.332500", "101402.335000", "101403.340000", "101404.342500", "101405.347500", "101406.352500", "101407.355000", "101408.360000", "101409.362500", "101410.367500", "101411.372500", "101412.375000", "101413.380000", "101414.382500", "101415.387500", "101416.392500", "101417.395000", "101418.400000", "101419.402500", "101420.407500", "101421.412500", "101422.415000", "101423.420000", "101424.425000", "101425.427500", "101426.432500", "101427.435000", "101428.440000", "101429.445000", "101430.447500", "101431.452500", "101432.455000", "101433.460000", "101434.465000", "101435.467500", "101436.472500", "101437.475000", "101438.480000", "101439.485000", "101440.487500", "101441.492500", "101442.495000", "101443.500000", "101444.505000", "101445.507500", "101446.512500", "101447.515000", "101448.520000", "101449.525000", "101450.527500", "101451.532500", "101452.537500", "101453.540000", "101454.545000", "101455.547500", "101456.552500", "101457.557500"],
      "ContentTime": ["101001.843000", "101001.843000", "101001.859000", "101001.859000", "101001.859000", "101001.859000", "101001.859000", "101001.859000", "101001.859000", "101001.875000", "101001.875000", "101001.875000", "101001.875000", "101001.875000", "101001.875000", "101001.875000", "101001.890000", "101001.890000", "101001.890000", "101001.890000", "101001.890000", "101001.890000", "101001.906000", "101001.906000", "101001.906000", "101001.906000", "101001.906000", "101001.906000", "101001.921000", "101001.921000", "101001.921000", "101001.921000", "101001.921000", "101021.812000", "101021.812000", "101021.812000", "101021.812000", "101021.812000", "101021.812000", "101021.828000", "101021.828000", "101021.828000", "101021.828000", "101021.828000", "101021.828000", "101021.843000", "101021.843000", "101021.843000", "101021.843000", "101021.843000", "101021.843000", "101021.843000", "101021.859000", "101041.812000", "101041.812000", "101041.812000", "101041.812000", "101041.828000", "101041.828000", "101041.828000", "101041.828000", "101041.828000", "101041.828000", "101041.828000", "101041.843000", "101041.843000", "101041.843000", "101041.843000", "101041.843000", "101041.843000", "101041.843000", "101041.843000", "101041.859000", "101101.812000", "101101.812000", "101101.812000", "101101.812000", "101101.812000", "101101.812000", "101101.828000", "101101.828000", "101101.828000", "101101.828000", "101101.828000", "101101.828000", "101101.828000", "101101.843000", "101101.843000", "101101.843000", "101101.843000", "101101.843000", "101101.843000", "101101.843000", "101121.812000", "101121.812000", "101121.812000", "101121.812000", "101121.812000", "101121.812000", "101121.828000", "101121.828000", "101121.828000", "101121.828000", "101121.828000", "101121.828000", "101121.828000", "101121.828000", "101121.843000", "101121.843000", "101121.843000", "101121.843000", "101121.843000", "101121.843000", "101141.812000", "101141.812000", "101141.812000", "101141.812000", "101141.812000", "101141.812000", "101141.828000", "101141.828000", "101141.828000", "101141.828000", "101141.828000", "101141.828000", "101141.843000", "101141.843000", "101141.843000", "101141.843000", "101141.843000", "101141.843000", "101141.859000", "101141.859000", "101201.812000", "101201.812000", "101201.812000", "101201.812000", "101201.812000", "101201.812000", "101201.828000", "101201.828000", "101201.828000", "101201.828000", "101201.828000", "101201.828000", "101201.843000", "101201.843000", "101201.843000", "101201.843000", "101201.843000", "101201.859000", "101201.859000", "101201.859000", "101221.812000", "101221.812000", "101221.812000", "101221.812000", "101221.812000", "101221.812000", "101221.828000", "101221.828000", "101221.828000", "101221.828000", "101221.828000", "101221.828000", "101221.828000", "101221.843000", "101221.843000", "101221.843000", "101221.843000", "101221.843000", "101221.843000", "101221.843000", "101241.812000", "101241.812000", "101241.812000", "101241.812000", "101241.812000", "101241.812000", "101241.828000", "101241.828000", "101241.828000", "101241.828000", "101241.828000", "101241.828000", "101241.828000", "101241.843000", "101241.843000", "101241.843000", "101241.843000", "101241.843000", "101241.843000", "101241.843000", "101301.812000", "101301.812000", "101301.812000", "101301.812000", "101301.812000", "101301.828000", "101301.828000", "101301.828000", "101301.828000", "101301.828000", "101301.828000", "101301.828000", "101301.828000", "101301.843000", "101301.843000", "101301.843000", "101301.843000", "101301.843000", "101301.843000", "101301.843000", "101321.812000", "101321.812000", "101321.812000", "101321.828000", "101321.828000", "101321.828000", "101321.828000", "101321.828000", "101321.843000", "101321.843000", "101321.843000", "101321.843000", "101321.843000", "101321.843000", "101321.843000", "101321.859000", "101321.859000", "101321.859000", "101321.859000", "101321.859000", "101341.812000", "101341.812000", "101341.812000", "101341.812000", "101341.812000", "101341.812000", "101341.828000", "101341.828000", "101341.828000", "101341.828000", "101341.828000", "101341.843000", "101341.843000", "101341.843000", "101341.843000", "101341.843000", "101341.843000", "101341.859000", "101341.859000", "101341.859000", "101401.812000", "101401.812000", "101401.812000", "101401.812000", "101401.812000", "101401.812000", "101401.828000", "101401.828000", "101401.828000", "101401.828000", "101401.828000", "101401.828000", "101401.828000", "101401.843000", "101401.843000", "101401.843000", "101401.843000", "101401.843000", "101401.843000", "101401.843000", "101421.812000", "101421.812000", "101421.812000", "101421.812000", "101421.812000", "101421.812000", "101421.828000", "101421.843000", "101421.843000", "101421.843000", "101421.843000", "101421.843000", "101421.843000", "101421.859000", "101421.859000", "101421.859000", "101421.859000", "101421.859000", "101421.859000", "101421.859000", "101441.812000", "101441.812000", "101441.812000", "101441.812000", "101441.812000", "101441.812000", "101441.828000", "101441.828000", "101441.828000", "101441.828000", "101441.828000", "101441.843000", "101441.843000", "101441.843000", "101441.843000", "101441.843000", "101441.843000", "101441.843000", "101441.859000", "101441.859000", "101503.515000", "101503.515000", "101503.515000", "101503.515000", "101503.515000", "101503.515000", "101503.515000", "101503.531000", "101503.531000", "101503.531000", "101503.531000", "101503.531000", "101503.531000", "101503.531000", "101503.546000", "101503.546000", "101503.546000"],
      "InstanceCreationTime": ["101001.843000", "101001.843000", "101001.859000", "101001.859000", "101001.859000", "101001.859000", "101001.859000", "101001.859000", "101001.859000", "101001.875000", "101001.875000", "101001.875000", "101001.875000", "101001.875000", "101001.875000", "101001.875000", "101001.890000", "101001.890000", "101001.890000", "101001.890000", "101001.890000", "101001.890000", "101001.906000", "101001.906000", "101001.906000", "101001.906000", "101001.906000", "101001.906000", "101001.921000", "101001.921000", "101001.921000", "101001.921000", "101001.921000", "101021.812000", "101021.812000", "101021.812000", "101021.812000", "101021.812000", "101021.812000", "101021.828000", "101021.828000", "101021.828000", "101021.828000", "101021.828000", "101021.828000", "101021.843000", "101021.843000", "101021.843000", "101021.843000", "101021.843000", "101021.843000", "101021.843000", "101021.859000", "101041.812000", "101041.812000", "101041.812000", "101041.812000", "101041.828000", "101041.828000", "101041.828000", "101041.828000", "101041.828000", "101041.828000", "101041.828000", "101041.843000", "101041.843000", "101041.843000", "101041.843000", "101041.843000", "101041.843000", "101041.843000", "101041.843000", "101041.859000", "101101.812000", "101101.812000", "101101.812000", "101101.812000", "101101.812000", "101101.812000", "101101.828000", "101101.828000", "101101.828000", "101101.828000", "101101.828000", "101101.828000", "101101.828000", "101101.843000", "101101.843000", "101101.843000", "101101.843000", "101101.843000", "101101.843000", "101101.843000", "101121.812000", "101121.812000", "101121.812000", "101121.812000", "101121.812000", "101121.812000", "101121.828000", "101121.828000", "101121.828000", "101121.828000", "101121.828000", "101121.828000", "101121.828000", "101121.828000", "101121.843000", "101121.843000", "101121.843000", "101121.843000", "101121.843000", "101121.843000", "101141.812000", "101141.812000", "101141.812000", "101141.812000", "101141.812000", "101141.812000", "101141.828000", "101141.828000", "101141.828000", "101141.828000", "101141.828000", "101141.828000", "101141.843000", "101141.843000", "101141.843000", "101141.843000", "101141.843000", "101141.843000", "101141.859000", "101141.859000", "101201.812000", "101201.812000", "101201.812000", "101201.812000", "101201.812000", "101201.812000", "101201.828000", "101201.828000", "101201.828000", "101201.828000", "101201.828000", "101201.828000", "101201.843000", "101201.843000", "101201.843000", "101201.843000", "101201.843000", "101201.859000", "101201.859000", "101201.859000", "101221.812000", "101221.812000", "101221.812000", "101221.812000", "101221.812000", "101221.812000", "101221.828000", "101221.828000", "101221.828000", "101221.828000", "101221.828000", "101221.828000", "101221.828000", "101221.843000", "101221.843000", "101221.843000", "101221.843000", "101221.843000", "101221.843000", "101221.843000", "101241.812000", "101241.812000", "101241.812000", "101241.812000", "101241.812000", "101241.812000", "101241.828000", "101241.828000", "101241.828000", "101241.828000", "101241.828000", "101241.828000", "101241.828000", "101241.843000", "101241.843000", "101241.843000", "101241.843000", "101241.843000", "101241.843000", "101241.843000", "101301.812000", "101301.812000", "101301.812000", "101301.812000", "101301.812000", "101301.828000", "101301.828000", "101301.828000", "101301.828000", "101301.828000", "101301.828000", "101301.828000", "101301.828000", "101301.843000", "101301.843000", "101301.843000", "101301.843000", "101301.843000", "101301.843000", "101301.843000", "101321.812000", "101321.812000", "101321.812000", "101321.828000", "101321.828000", "101321.828000", "101321.828000", "101321.828000", "101321.843000", "101321.843000", "101321.843000", "101321.843000", "101321.843000", "101321.843000", "101321.843000", "101321.859000", "101321.859000", "101321.859000", "101321.859000", "101321.859000", "101341.812000", "101341.812000", "101341.812000", "101341.812000", "101341.812000", "101341.812000", "101341.828000", "101341.828000", "101341.828000", "101341.828000", "101341.828000", "101341.843000", "101341.843000", "101341.843000", "101341.843000", "101341.843000", "101341.843000", "101341.859000", "101341.859000", "101341.859000", "101401.812000", "101401.812000", "101401.812000", "101401.812000", "101401.812000", "101401.812000", "101401.828000", "101401.828000", "101401.828000", "101401.828000", "101401.828000", "101401.828000", "101401.828000", "101401.843000", "101401.843000", "101401.843000", "101401.843000", "101401.843000", "101401.843000", "101401.843000", "101421.812000", "101421.812000", "101421.812000", "101421.812000", "101421.812000", "101421.812000", "101421.828000", "101421.843000", "101421.843000", "101421.843000", "101421.843000", "101421.843000", "101421.843000", "101421.859000", "101421.859000", "101421.859000", "101421.859000", "101421.859000", "101421.859000", "101421.859000", "101441.812000", "101441.812000", "101441.812000", "101441.812000", "101441.812000", "101441.812000", "101441.828000", "101441.828000", "101441.828000", "101441.828000", "101441.828000", "101441.843000", "101441.843000", "101441.843000", "101441.843000", "101441.843000", "101441.843000", "101441.843000", "101441.859000", "101441.859000", "101503.515000", "101503.515000", "101503.515000", "101503.515000", "101503.515000", "101503.515000", "101503.515000", "101503.531000", "101503.531000", "101503.531000", "101503.531000", "101503.531000", "101503.531000", "101503.531000", "101503.546000", "101503.546000", "101503.546000"],
      "InstanceNumber": [1, 2, 3, 4, 5, 6, 7, 8, 9, 10, 11, 12, 13, 14, 15, 16, 17, 18, 19, 20, 21, 22, 23, 24, 25, 26, 27, 28, 29, 30, 31, 32, 33, 34, 35, 36, 37, 38, 39, 40, 41, 42, 43, 44, 45, 46, 47, 48, 49, 50, 51, 52, 53, 54, 55, 56, 57, 58, 59, 60, 61, 62, 63, 64, 65, 66, 67, 68, 69, 70, 71, 72, 73, 74, 75, 76, 77, 78, 79, 80, 81, 82, 83, 84, 85, 86, 87, 88, 89, 90, 91, 92, 93, 94, 95, 96, 97, 98, 99, 100, 101, 102, 103, 104, 105, 106, 107, 108, 109, 110, 111, 112, 113, 114, 115, 116, 117, 118, 119, 120, 121, 122, 123, 124, 125, 126, 127, 128, 129, 130, 131, 132, 133, 134, 135, 136, 137, 138, 139, 140, 141, 142, 143, 144, 145, 146, 147, 148, 149, 150, 151, 152, 153, 154, 155, 156, 157, 158, 159, 160, 161, 162, 163, 164, 165, 166, 167, 168, 169, 170, 171, 172, 173, 174, 175, 176, 177, 178, 179, 180, 181, 182, 183, 184, 185, 186, 187, 188, 189, 190, 191, 192, 193, 194, 195, 196, 197, 198, 199, 200, 201, 202, 203, 204, 205, 206, 207, 208, 209, 210, 211, 212, 213, 214, 215, 216, 217, 218, 219, 220, 221, 222, 223, 224, 225, 226, 227, 228, 229, 230, 231, 232, 233, 234, 235, 236, 237, 238, 239, 240, 241, 242, 243, 244, 245, 246, 247, 248, 249, 250, 251, 252, 253, 254, 255, 256, 257, 258, 259, 260, 261, 262, 263, 264, 265, 266, 267, 268, 269, 270, 271, 272, 273, 274, 275, 276, 277, 278, 279, 280, 281, 282, 283, 284, 285, 286, 287, 288, 289, 290, 291, 292, 293, 294, 295, 296, 297, 298, 299, 300, 301, 302, 303, 304, 305, 306, 307, 308, 309, 310, 311, 312, 313, 314, 315, 316, 317, 318, 319, 320, 321, 322, 323, 324, 325, 326, 327, 328, 329, 330],
      "LargestImagePixelValue": [1949, 1931, 1914, 1904, 1938, 1910, 1910, 1913, 1916, 1917, 1911, 1874, 1844, 1872, 1921, 1934, 1898, 1950, 1975, 1917, 1964, 1914, 1917, 1922, 1939, 1913, 1916, 1937, 1950, 1939, 1924, 1914, 1941, 1899, 1906, 1928, 1915, 1930, 1932, 1880, 1893, 1891, 1925, 1915, 1929, 1949, 1949, 1966, 1933, 1955, 1907, 1909, 1886, 1933, 1920, 1964, 1915, 1881, 1891, 1923, 1898, 1889, 1916, 1921, 1910, 1936, 1912, 1881, 1889, 1891, 1875, 1882, 1875, 1925, 1911, 1921, 1933, 1923, 1915, 1890, 1901, 1879, 1890, 1902, 1950, 1926, 1958, 1944, 1943, 1925, 1943, 1913, 1914, 1951, 1903, 1897, 1906, 1920, 1926, 1926, 1893, 1929, 1909, 1928, 1934, 1924, 1907, 1935, 1908, 1898, 1926, 1904, 1946, 1940, 1989, 1994, 1952, 1935, 1949, 1917, 1944, 1915, 1922, 1919, 1953, 1977, 1953, 1918, 1963, 1947, 1946, 1926, 1912, 1921, 1960, 1959, 1955, 1950, 1923, 1942, 1925, 1915, 1945, 1938, 1978, 1989, 1950, 1922, 1983, 1982, 1937, 1881, 1914, 1883, 1953, 1940, 1913, 1909, 1979, 1948, 1945, 1920, 1921, 1904, 1923, 1914, 1907, 1891, 1898, 1916, 1896, 1885, 1909, 1925, 1963, 1940, 1914, 1906, 1926, 1919, 1933, 1915, 1907, 1897, 1938, 1912, 1921, 1947, 1939, 1963, 1924, 1913, 1952, 1962, 1949, 1946, 1909, 1919, 1893, 1949, 1920, 1871, 1910, 1915, 1941, 1921, 1921, 1919, 1946, 1939, 1919, 1896, 1934, 1925, 1949, 1966, 1944, 1928, 1918, 1962, 1940, 1940, 1980, 1996, 1974, 1987, 1925, 1917, 1906, 1946, 1943, 1937, 1921, 2006, 1985, 1931, 1926, 1903, 1918, 1897, 1940, 1973, 1920, 1978, 2008, 1954, 1969, 1989, 2012, 1979, 2007, 1963, 1912, 1997, 1983, 1995, 1958, 1928, 1993, 1963, 1973, 1966, 1950, 1944, 1985, 1979, 1939, 1950, 1949, 1980, 1954, 1988, 1987, 1986, 1975, 1924, 1948, 1904, 1943, 2012, 2010, 1973, 1954, 1982, 1988, 1965, 1933, 1934, 1952, 1938, 1949, 1881, 1937, 1954, 1973, 1953, 2012, 1932, 1919, 1968, 1983, 1946, 1997, 1989, 1993, 1964, 2002, 1969, 1944, 1949, 1973, 1952, 1951, 1959, 1999, 1969, 1965, 1944, 1951, 2011, 1974, 1917, 1943, 1949, 1949, 1951, 1966, 1949, 1936, 1997],
      "WindowCenter": [407.0, 407.0, 406.0, 406.0, 406.0, 406.0, 407.0, 407.0, 406.0, 405.0, 406.0, 405.0, 405.0, 407.0, 407.0, 407.0, 406.0, 406.0, 406.0, 405.0, 406.0, 406.0, 406.0, 406.0, 406.0, 406.0, 407.0, 407.0, 407.0, 405.0, 405.0, 405.0, 405.0, 405.0, 406.0, 406.0, 405.0, 406.0, 405.0, 405.0, 406.0, 406.0, 407.0, 407.0, 407.0, 407.0, 407.0, 406.0, 406.0, 407.0, 407.0, 407.0, 407.0, 407.0, 407.0, 407.0, 407.0, 406.0, 407.0, 407.0, 407.0, 407.0, 407.0, 407.0, 405.0, 405.0, 405.0, 405.0, 405.0, 406.0, 407.0, 407.0, 407.0, 407.0, 407.0, 407.0, 407.0, 407.0, 407.0, 406.0, 405.0, 406.0, 407.0, 407.0, 409.0, 409.0, 409.0, 407.0, 407.0, 407.0, 407.0, 407.0, 407.0, 407.0, 406.0, 406.0, 405.0, 405.0, 406.0, 407.0, 407.0, 407.0, 407.0, 407.0, 406.0, 406.0, 406.0, 407.0, 407.0, 407.0, 407.0, 407.0, 407.0, 407.0, 407.0, 408.0, 407.0, 407.0, 407.0, 407.0, 407.0, 407.0, 407.0, 407.0, 408.0, 408.0, 407.0, 407.0, 407.0, 407.0, 407.0, 407.0, 407.0, 407.0, 408.0, 407.0, 407.0, 406.0, 407.0, 407.0, 408.0, 407.0, 408.0, 408.0, 407.0, 407.0, 407.0, 407.0, 408.0, 407.0, 406.0, 406.0, 406.0, 406.0, 406.0, 406.0, 407.0, 407.0, 408.0, 407.0, 407.0, 407.0, 407.0, 406.0, 406.0, 406.0, 406.0, 406.0, 407.0, 407.0, 407.0, 407.0, 407.0, 407.0, 407.0, 407.0, 407.0, 407.0, 408.0, 408.0, 407.0, 407.0, 407.0, 407.0, 407.0, 407.0, 407.0, 407.0, 406.0, 408.0, 407.0, 408.0, 409.0, 408.0, 407.0, 407.0, 406.0, 406.0, 405.0, 406.0, 406.0, 406.0, 405.0, 406.0, 406.0, 406.0, 406.0, 407.0, 406.0, 406.0, 407.0, 407.0, 407.0, 407.0, 407.0, 408.0, 407.0, 407.0, 407.0, 407.0, 407.0, 407.0, 407.0, 407.0, 406.0, 406.0, 406.0, 406.0, 406.0, 406.0, 407.0, 407.0, 407.0, 407.0, 406.0, 405.0, 405.0, 406.0, 406.0, 407.0, 407.0, 408.0, 407.0, 408.0, 409.0, 408.0, 407.0, 408.0, 407.0, 407.0, 407.0, 407.0, 406.0, 406.0, 407.0, 406.0, 406.0, 406.0, 406.0, 406.0, 406.0, 406.0, 406.0, 406.0, 406.0, 408.0, 407.0, 407.0, 407.0, 407.0, 407.0, 407.0, 407.0, 407.0, 406.0, 405.0, 406.0, 407.0, 407.0, 408.0, 407.0, 407.0, 407.0, 408.0, 408.0, 407.0, 407.0, 407.0, 407.0, 407.0, 408.0, 407.0, 409.0, 409.0, 409.0, 407.0, 408.0, 407.0, 407.0, 407.0, 408.0, 407.0, 407.0, 407.0, 407.0, 406.0, 406.0, 407.0, 406.0, 406.0, 407.0, 407.0, 406.0, 407.0, 407.0, 407.0, 407.0, 407.0, 408.0, 409.0, 409.0, 408.0, 407.0, 407.0, 407.0, 407.0, 408.0, 407.0, 407.0, 407.0],
