{
  "AcquisitionMatrixPE": 104,
  "AcquisitionNumber": 1,
  "AcquisitionTime": "09:32:41.145000",
  "BandwidthPerPixelPhaseEncode": 43.054,
  "BaseResolution": 104,
  "CoilString": "C:E1_2",
  "ConversionSoftware": "dcm2niix",
  "ConversionSoftwareVersion": "v1.0.20191031",
  "DerivedVendorReportedEchoSpacing": 0.000669999,
  "DeviceSerialNumber": "18932",
  "DwellTime": 2.8e-06,
  "EchoTime": 0.02,
  "EffectiveEchoSpacing": 0.000223333,
  "FlipAngle": 30,
  "ImageComments": "Unaliased_MB2_PE2",
  "ImageOrientationPatientDICOM": [1, 0, 0, 0, 0.992546, -0.121869],
  "ImageType": [
    "ORIGINAL",
    "PRIMARY",
    "M",
    "MB",
    "ND",
    "MOSAIC"
],
  "ImagingFrequency": 297.23,
  "InPlanePhaseEncodingDirectionDICOM": "COL",
  "InstitutionAddress": "Richmond_Street_North_1151_London_409EF2_Ontario_CA_N6A_5B7",
  "InstitutionName": "Robarts_Reserch_Institute",
  "InstitutionalDepartmentName": "Department",
  "MRAcquisitionType": "2D",
  "MagneticFieldStrength": 6.98,
  "Manufacturer": "Siemens",
  "ManufacturersModelName": "Investigational_Device_7T",
  "Modality": "MR",
  "MultibandAccelerationFactor": 2,
  "ParallelReductionFactorInPlane": 3,
  "PartialFourier": 0.875,
  "PatientPosition": "HFS",
  "PercentPhaseFOV": 100,
  "PhaseEncodingDirection": "j-",
  "PhaseEncodingSteps": 91,
  "PhaseResolution": 1,
  "PixelBandwidth": 1717,
  "ProcedureStepDescription": "Diedrichsen_SeqRep4",
  "ProtocolName": "mbep2d_bold_mb2_p3_AP_2iso",
  "PulseSequenceDetails": "%CustomerSeq%_cmrr_mbep2d_bold",
  "ReceiveCoilName": "CFMM_8Tx32Rx",
  "ReconMatrixPE": 104,
  "RefLinesPE": 36,
  "RepetitionTime": 1,
  "ScanOptions": "PFP_FS",
  "ScanningSequence": "EP",
  "SequenceName": "epfid2d1_104",
  "SequenceVariant": "SK_SS",
  "SeriesDescription": "mbep2d_bold_mb2_p3_AP_2iso",
  "SeriesNumber": 18,
  "ShimSetting": [-39, 2025, 376, 241, 228, 77, -97, -67],
  "SliceThickness": 2,
  "SliceTiming": [0, 0.2275, 0.455, 0.6825, 0.9125, 0.135, 0.365, 0.5925, 0.82, 0.045, 0.2725, 0.5, 0.73, 0.9575, 0.1825, 0.41, 0.6375, 0.865, 0.09, 0.3175, 0.5475, 0.775, 0, 0.2275, 0.455, 0.6825, 0.9125, 0.135, 0.365, 0.5925, 0.82, 0.045, 0.2725, 0.5, 0.73, 0.9575, 0.1825, 0.41, 0.6375, 0.865, 0.09, 0.3175, 0.5475, 0.775],
  "SoftwareVersions": "syngo_MR_B17",
  "SpacingBetweenSlices": 2,
  "StationName": "MASTER",
  "TaskName": "dsp",
  "TotalReadoutTime": 0.0230033,
  "TxRefAmp": 120,
  "dcmmeta_affine": [
    [-2.0, 0.0, 0.0, 108.35835266113281],
    [0.0, 1.985092282295227, -0.24373869597911835, -107.62377166748047],
    [0.0, 0.24373868107795715, 1.985092282295227, -34.82061767578125],
    [0.0, 0.0, 0.0, 1.0]
],
  "dcmmeta_reorient_transform": [
    [0.0, -1.0, 0.0, 103.0],
    [1.0, 0.0, 0.0, 0.0],
    [0.0, 0.0, 1.0, 0.0],
    [0.0, 0.0, 0.0, 1.0]
],
  "dcmmeta_shape": [104, 104, 44, 330],
  "dcmmeta_slice_dim": 2,
  "dcmmeta_version": 0.6,
  "global": {
    "const": {
      "AcquisitionMatrix": [104, 0, 0, 104],
      "AngioFlag": "N",
      "BitsAllocated": 16,
      "BitsStored": 12,
      "Columns": 728,
      "EchoNumbers": 1,
      "EchoTime": 20.0,
      "EchoTrainLength": 1,
      "FlipAngle": 30.0,
      "HighBit": 11,
      "ImageOrientationPatient": [1.0, 0.0, 0.0, 0.0, 0.99254615167353, -0.1218693431428],
      "ImagePositionPatient": [-732.35835361481, -716.18953612814, 66.330935824086],
      "ImageType": [
        "ORIGINAL",
        "PRIMARY",
        "M",
        "MB",
        "ND",
        "MOSAIC"
],
      "ImagedNucleus": "1H",
      "ImagingFrequency": 297.230147,
      "InPlanePhaseEncodingDirection": "COL",
      "MRAcquisitionType": "2D",
      "MagneticFieldStrength": 6.98,
      "Manufacturer": "SIEMENS",
      "ManufacturerModelName": "Investigational_Device_7T",
      "Modality": "MR",
      "NumberOfAverages": 1.0,
      "NumberOfPhaseEncodingSteps": 91,
      "PercentPhaseFieldOfView": 100.0,
      "PercentSampling": 100.0,
      "PerformedProcedureStepStartTime": "085638.812000",
      "PhotometricInterpretation": "MONOCHROME2",
      "PixelBandwidth": 1717.0,
      "PixelRepresentation": 0,
      "PixelSpacing": [2.0, 2.0],
      "ProtocolName": "mbep2d_bold_mb2_p3_AP 2iso",
      "RepetitionTime": 1000.0,
      "Rows": 728,
      "SAR": 0.0,
      "SamplesPerPixel": 1,
      "ScanOptions": [
        "PFP",
        "FS"
],
      "ScanningSequence": "EP",
      "SequenceName": "epfid2d1_104",
      "SequenceVariant": [
        "SK",
        "SS"
],
      "SeriesDescription": "mbep2d_bold_mb2_p3_AP 2iso",
      "SeriesNumber": 18,
      "SeriesTime": "093321.859000",
      "SliceLocation": -21.445033244596,
      "SliceThickness": 2.0,
      "SmallestImagePixelValue": 0,
      "SoftwareVersions": "syngo MR B17",
      "SpacingBetweenSlices": 2.0000000380287,
      "SpecificCharacterSet": "ISO_IR 100",
      "StudyID": "1",
      "StudyTime": "085638.765000",
      "TransmitCoilName": "CFMM_8Tx32Rx",
      "VariableFlipAngleFlag": "N",
      "WindowCenterWidthExplanation": "Algo1",
      "dBdt": 0.0},
    "slices": {}
  },
  "time": {
    "samples": {
      "AcquisitionNumber": [1, 2, 3, 4, 5, 6, 7, 8, 9, 10, 11, 12, 13, 14, 15, 16, 17, 18, 19, 20, 21, 22, 23, 24, 25, 26, 27, 28, 29, 30, 31, 32, 33, 34, 35, 36, 37, 38, 39, 40, 41, 42, 43, 44, 45, 46, 47, 48, 49, 50, 51, 52, 53, 54, 55, 56, 57, 58, 59, 60, 61, 62, 63, 64, 65, 66, 67, 68, 69, 70, 71, 72, 73, 74, 75, 76, 77, 78, 79, 80, 81, 82, 83, 84, 85, 86, 87, 88, 89, 90, 91, 92, 93, 94, 95, 96, 97, 98, 99, 100, 101, 102, 103, 104, 105, 106, 107, 108, 109, 110, 111, 112, 113, 114, 115, 116, 117, 118, 119, 120, 121, 122, 123, 124, 125, 126, 127, 128, 129, 130, 131, 132, 133, 134, 135, 136, 137, 138, 139, 140, 141, 142, 143, 144, 145, 146, 147, 148, 149, 150, 151, 152, 153, 154, 155, 156, 157, 158, 159, 160, 161, 162, 163, 164, 165, 166, 167, 168, 169, 170, 171, 172, 173, 174, 175, 176, 177, 178, 179, 180, 181, 182, 183, 184, 185, 186, 187, 188, 189, 190, 191, 192, 193, 194, 195, 196, 197, 198, 199, 200, 201, 202, 203, 204, 205, 206, 207, 208, 209, 210, 211, 212, 213, 214, 215, 216, 217, 218, 219, 220, 221, 222, 223, 224, 225, 226, 227, 228, 229, 230, 231, 232, 233, 234, 235, 236, 237, 238, 239, 240, 241, 242, 243, 244, 245, 246, 247, 248, 249, 250, 251, 252, 253, 254, 255, 256, 257, 258, 259, 260, 261, 262, 263, 264, 265, 266, 267, 268, 269, 270, 271, 272, 273, 274, 275, 276, 277, 278, 279, 280, 281, 282, 283, 284, 285, 286, 287, 288, 289, 290, 291, 292, 293, 294, 295, 296, 297, 298, 299, 300, 301, 302, 303, 304, 305, 306, 307, 308, 309, 310, 311, 312, 313, 314, 315, 316, 317, 318, 319, 320, 321, 322, 323, 324, 325, 326, 327, 328, 329, 330],
      "AcquisitionTime": ["093241.145000", "093242.147500", "093243.152500", "093244.157500", "093245.160000", "093246.165000", "093247.167500", "093248.172500", "093249.177500", "093250.180000", "093251.185000", "093252.187500", "093253.192500", "093254.197500", "093255.200000", "093256.205000", "093257.207500", "093258.212500", "093259.217500", "093300.220000", "093301.225000", "093302.227500", "093303.232500", "093304.237500", "093305.240000", "093306.245000", "093307.247500", "093308.252500", "093309.257500", "093310.260000", "093311.265000", "093312.270000", "093313.272500", "093314.277500", "093315.280000", "093316.285000", "093317.290000", "093318.292500", "093319.297500", "093320.300000", "093321.305000", "093322.310000", "093323.312500", "093324.317500", "093325.320000", "093326.325000", "093327.330000", "093328.332500", "093329.337500", "093330.340000", "093331.345000", "093332.350000", "093333.352500", "093334.357500", "093335.360000", "093336.365000", "093337.370000", "093338.372500", "093339.377500", "093340.382500", "093341.385000", "093342.390000", "093343.392500", "093344.397500", "093345.402500", "093346.405000", "093347.410000", "093348.412500", "093349.417500", "093350.422500", "093351.425000", "093352.430000", "093353.432500", "093354.437500", "093355.442500", "093356.445000", "093357.450000", "093358.452500", "093359.457500", "093400.462500", "093401.465000", "093402.470000", "093403.472500", "093404.477500", "093405.482500", "093406.485000", "093407.490000", "093408.492500", "093409.497500", "093410.502500", "093411.505000", "093412.510000", "093413.515000", "093414.517500", "093415.522500", "093416.525000", "093417.530000", "093418.535000", "093419.537500", "093420.542500", "093421.545000", "093422.550000", "093423.555000", "093424.557500", "093425.562500", "093426.565000", "093427.570000", "093428.575000", "093429.577500", "093430.582500", "093431.585000", "093432.590000", "093433.595000", "093434.597500", "093435.602500", "093436.605000", "093437.610000", "093438.615000", "093439.617500", "093440.622500", "093441.625000", "093442.630000", "093443.635000", "093444.637500", "093445.642500", "093446.647500", "093447.650000", "093448.655000", "093449.657500", "093450.662500", "093451.667500", "093452.670000", "093453.675000", "093454.677500", "093455.682500", "093456.687500", "093457.690000", "093458.695000", "093459.697500", "093500.702500", "093501.707500", "093502.710000", "093503.715000", "093504.717500", "093505.722500", "093506.727500", "093507.730000", "093508.735000", "093509.737500", "093510.742500", "093511.747500", "093512.750000", "093513.755000", "093514.760000", "093515.762500", "093516.767500", "093517.770000", "093518.775000", "093519.780000", "093520.782500", "093521.787500", "093522.790000", "093523.795000", "093524.800000", "093525.802500", "093526.807500", "093527.810000", "093528.815000", "093529.820000", "093530.822500", "093531.827500", "093532.830000", "093533.835000", "093534.840000", "093535.842500", "093536.847500", "093537.850000", "093538.855000", "093539.860000", "093540.862500", "093541.867500", "093542.870000", "093543.875000", "093544.880000", "093545.882500", "093546.887500", "093547.892500", "093548.895000", "093549.900000", "093550.902500", "093551.907500", "093552.912500", "093553.915000", "093554.920000", "093555.922500", "093556.927500", "093557.932500", "093558.935000", "093559.940000", "093600.942500", "093601.947500", "093602.952500", "093603.955000", "093604.960000", "093605.962500", "093606.967500", "093607.972500", "093608.975000", "093609.980000", "093610.982500", "093611.987500", "093612.992500", "093613.995000", "093615.000000", "093616.005000", "093617.007500", "093618.012500", "093619.015000", "093620.020000", "093621.025000", "093622.027500", "093623.032500", "093624.035000", "093625.040000", "093626.045000", "093627.047500", "093628.052500", "093629.055000", "093630.060000", "093631.065000", "093632.067500", "093633.072500", "093634.075000", "093635.080000", "093636.085000", "093637.087500", "093638.092500", "093639.095000", "093640.100000", "093641.105000", "093642.107500", "093643.112500", "093644.115000", "093645.120000", "093646.125000", "093647.127500", "093648.132500", "093649.137500", "093650.140000", "093651.145000", "093652.147500", "093653.152500", "093654.157500", "093655.160000", "093656.165000", "093657.167500", "093658.172500", "093659.177500", "093700.180000", "093701.185000", "093702.187500", "093703.192500", "093704.197500", "093705.200000", "093706.205000", "093707.207500", "093708.212500", "093709.217500", "093710.220000", "093711.225000", "093712.227500", "093713.232500", "093714.237500", "093715.240000", "093716.245000", "093717.247500", "093718.252500", "093719.257500", "093720.260000", "093721.265000", "093722.270000", "093723.272500", "093724.277500", "093725.280000", "093726.285000", "093727.290000", "093728.292500", "093729.297500", "093730.300000", "093731.305000", "093732.310000", "093733.312500", "093734.317500", "093735.320000", "093736.325000", "093737.330000", "093738.332500", "093739.337500", "093740.340000", "093741.345000", "093742.350000", "093743.352500", "093744.357500", "093745.360000", "093746.365000", "093747.370000", "093748.372500", "093749.377500", "093750.382500", "093751.385000", "093752.390000", "093753.392500", "093754.397500", "093755.402500", "093756.405000", "093757.410000", "093758.412500", "093759.417500", "093800.422500", "093801.425000", "093802.430000", "093803.432500", "093804.437500", "093805.442500", "093806.445000", "093807.450000", "093808.452500", "093809.457500", "093810.462500", "093811.465000"],
      "ContentTime": ["093321.859000", "093321.859000", "093321.859000", "093321.859000", "093321.859000", "093321.859000", "093321.875000", "093321.875000", "093321.875000", "093321.875000", "093321.875000", "093321.875000", "093321.875000", "093321.875000", "093321.890000", "093321.890000", "093321.890000", "093321.890000", "093321.890000", "093321.890000", "093321.890000", "093321.906000", "093321.906000", "093321.906000", "093321.906000", "093321.906000", "093321.906000", "093321.921000", "093321.921000", "093321.921000", "093321.921000", "093321.921000", "093321.921000", "093321.921000", "093321.937000", "093321.937000", "093321.937000", "093321.937000", "093341.812000", "093341.812000", "093341.812000", "093341.812000", "093341.812000", "093341.828000", "093341.828000", "093341.828000", "093341.828000", "093341.828000", "093341.843000", "093341.843000", "093341.843000", "093341.843000", "093341.843000", "093341.843000", "093341.843000", "093341.859000", "093341.859000", "093341.859000", "093401.812000", "093401.812000", "093401.812000", "093401.812000", "093401.828000", "093401.828000", "093401.828000", "093401.843000", "093401.843000", "093401.843000", "093401.859000", "093401.859000", "093401.859000", "093401.859000", "093401.859000", "093401.859000", "093401.859000", "093401.875000", "093401.875000", "093401.875000", "093421.812000", "093421.812000", "093421.812000", "093421.812000", "093421.812000", "093421.828000", "093421.828000", "093421.828000", "093421.828000", "093421.828000", "093421.828000", "093421.828000", "093421.843000", "093421.843000", "093421.843000", "093421.843000", "093421.843000", "093421.843000", "093421.843000", "093421.859000", "093441.812000", "093441.812000", "093441.812000", "093441.828000", "093441.828000", "093441.828000", "093441.828000", "093441.828000", "093441.828000", "093441.828000", "093441.828000", "093441.843000", "093441.843000", "093441.843000", "093441.843000", "093441.843000", "093441.843000", "093441.843000", "093441.859000", "093441.859000", "093501.812000", "093501.812000", "093501.812000", "093501.812000", "093501.812000", "093501.828000", "093501.828000", "093501.828000", "093501.828000", "093501.828000", "093501.843000", "093501.843000", "093501.843000", "093501.843000", "093501.843000", "093501.843000", "093501.843000", "093501.859000", "093501.859000", "093501.859000", "093521.812000", "093521.812000", "093521.812000", "093521.812000", "093521.828000", "093521.828000", "093521.828000", "093521.828000", "093521.828000", "093521.843000", "093521.843000", "093521.843000", "093521.843000", "093521.859000", "093521.859000", "093521.859000", "093521.859000", "093521.859000", "093521.859000", "093521.859000", "093541.812000", "093541.812000", "093541.812000", "093541.812000", "093541.812000", "093541.828000", "093541.828000", "093541.828000", "093541.828000", "093541.843000", "093541.843000", "093541.843000", "093541.843000", "093541.843000", "093541.843000", "093541.843000", "093541.843000", "093541.859000", "093541.859000", "093541.859000", "093601.812000", "093601.812000", "093601.812000", "093601.812000", "093601.812000", "093601.828000", "093601.828000", "093601.828000", "093601.828000", "093601.828000", "093601.828000", "093601.828000", "093601.843000", "093601.843000", "093601.843000", "093601.843000", "093601.843000", "093601.843000", "093601.843000", "093601.859000", "093621.812000", "093621.812000", "093621.812000", "093621.812000", "093621.812000", "093621.812000", "093621.828000", "093621.828000", "093621.828000", "093621.828000", "093621.828000", "093621.828000", "093621.828000", "093621.843000", "093621.843000", "093621.843000", "093621.843000", "093621.843000", "093621.859000", "093621.859000", "093641.812000", "093641.812000", "093641.812000", "093641.812000", "093641.812000", "093641.828000", "093641.828000", "093641.828000", "093641.828000", "093641.828000", "093641.843000", "093641.843000", "093641.843000", "093641.843000", "093641.843000", "093641.843000", "093641.843000", "093641.859000", "093641.859000", "093641.875000", "093701.812000", "093701.812000", "093701.812000", "093701.812000", "093701.812000", "093701.828000", "093701.828000", "093701.828000", "093701.828000", "093701.828000", "093701.828000", "093701.843000", "093701.843000", "093701.843000", "093701.843000", "093701.843000", "093701.859000", "093701.859000", "093701.859000", "093701.859000", "093721.812000", "093721.812000", "093721.812000", "093721.812000", "093721.812000", "093721.828000", "093721.828000", "093721.828000", "093721.828000", "093721.828000", "093721.828000", "093721.828000", "093721.843000", "093721.843000", "093721.843000", "093721.843000", "093721.843000", "093721.843000", "093721.843000", "093721.859000", "093741.812000", "093741.812000", "093741.812000", "093741.812000", "093741.812000", "093741.812000", "093741.828000", "093741.828000", "093741.828000", "093741.828000", "093741.828000", "093741.828000", "093741.828000", "093741.843000", "093741.843000", "093741.843000", "093741.843000", "093741.843000", "093741.843000", "093741.843000", "093801.812000", "093801.812000", "093801.812000", "093801.812000", "093801.812000", "093801.828000", "093801.828000", "093801.828000", "093801.828000", "093801.828000", "093801.828000", "093801.843000", "093801.843000", "093801.843000", "093801.843000", "093801.843000", "093801.859000", "093801.859000", "093801.859000", "093801.859000", "093817.859000", "093817.859000", "093817.859000", "093817.859000", "093817.875000", "093817.875000", "093817.875000", "093817.875000", "093817.875000", "093817.875000", "093817.890000", "093817.890000"],
      "InstanceCreationTime": ["093321.859000", "093321.859000", "093321.859000", "093321.859000", "093321.859000", "093321.859000", "093321.875000", "093321.875000", "093321.875000", "093321.875000", "093321.875000", "093321.875000", "093321.875000", "093321.875000", "093321.890000", "093321.890000", "093321.890000", "093321.890000", "093321.890000", "093321.890000", "093321.890000", "093321.906000", "093321.906000", "093321.906000", "093321.906000", "093321.906000", "093321.906000", "093321.921000", "093321.921000", "093321.921000", "093321.921000", "093321.921000", "093321.921000", "093321.921000", "093321.937000", "093321.937000", "093321.937000", "093321.937000", "093341.812000", "093341.812000", "093341.812000", "093341.812000", "093341.812000", "093341.828000", "093341.828000", "093341.828000", "093341.828000", "093341.828000", "093341.843000", "093341.843000", "093341.843000", "093341.843000", "093341.843000", "093341.843000", "093341.843000", "093341.859000", "093341.859000", "093341.859000", "093401.812000", "093401.812000", "093401.812000", "093401.812000", "093401.828000", "093401.828000", "093401.828000", "093401.843000", "093401.843000", "093401.843000", "093401.859000", "093401.859000", "093401.859000", "093401.859000", "093401.859000", "093401.859000", "093401.859000", "093401.875000", "093401.875000", "093401.875000", "093421.812000", "093421.812000", "093421.812000", "093421.812000", "093421.812000", "093421.828000", "093421.828000", "093421.828000", "093421.828000", "093421.828000", "093421.828000", "093421.828000", "093421.843000", "093421.843000", "093421.843000", "093421.843000", "093421.843000", "093421.843000", "093421.843000", "093421.859000", "093441.812000", "093441.812000", "093441.812000", "093441.828000", "093441.828000", "093441.828000", "093441.828000", "093441.828000", "093441.828000", "093441.828000", "093441.828000", "093441.843000", "093441.843000", "093441.843000", "093441.843000", "093441.843000", "093441.843000", "093441.843000", "093441.859000", "093441.859000", "093501.812000", "093501.812000", "093501.812000", "093501.812000", "093501.812000", "093501.828000", "093501.828000", "093501.828000", "093501.828000", "093501.828000", "093501.843000", "093501.843000", "093501.843000", "093501.843000", "093501.843000", "093501.843000", "093501.843000", "093501.859000", "093501.859000", "093501.859000", "093521.812000", "093521.812000", "093521.812000", "093521.812000", "093521.828000", "093521.828000", "093521.828000", "093521.828000", "093521.828000", "093521.843000", "093521.843000", "093521.843000", "093521.843000", "093521.859000", "093521.859000", "093521.859000", "093521.859000", "093521.859000", "093521.859000", "093521.859000", "093541.812000", "093541.812000", "093541.812000", "093541.812000", "093541.812000", "093541.828000", "093541.828000", "093541.828000", "093541.828000", "093541.843000", "093541.843000", "093541.843000", "093541.843000", "093541.843000", "093541.843000", "093541.843000", "093541.843000", "093541.859000", "093541.859000", "093541.859000", "093601.812000", "093601.812000", "093601.812000", "093601.812000", "093601.812000", "093601.828000", "093601.828000", "093601.828000", "093601.828000", "093601.828000", "093601.828000", "093601.828000", "093601.843000", "093601.843000", "093601.843000", "093601.843000", "093601.843000", "093601.843000", "093601.843000", "093601.859000", "093621.812000", "093621.812000", "093621.812000", "093621.812000", "093621.812000", "093621.812000", "093621.828000", "093621.828000", "093621.828000", "093621.828000", "093621.828000", "093621.828000", "093621.828000", "093621.843000", "093621.843000", "093621.843000", "093621.843000", "093621.843000", "093621.859000", "093621.859000", "093641.812000", "093641.812000", "093641.812000", "093641.812000", "093641.812000", "093641.828000", "093641.828000", "093641.828000", "093641.828000", "093641.828000", "093641.843000", "093641.843000", "093641.843000", "093641.843000", "093641.843000", "093641.843000", "093641.843000", "093641.859000", "093641.859000", "093641.875000", "093701.812000", "093701.812000", "093701.812000", "093701.812000", "093701.812000", "093701.828000", "093701.828000", "093701.828000", "093701.828000", "093701.828000", "093701.828000", "093701.843000", "093701.843000", "093701.843000", "093701.843000", "093701.843000", "093701.859000", "093701.859000", "093701.859000", "093701.859000", "093721.812000", "093721.812000", "093721.812000", "093721.812000", "093721.812000", "093721.828000", "093721.828000", "093721.828000", "093721.828000", "093721.828000", "093721.828000", "093721.828000", "093721.843000", "093721.843000", "093721.843000", "093721.843000", "093721.843000", "093721.843000", "093721.843000", "093721.859000", "093741.812000", "093741.812000", "093741.812000", "093741.812000", "093741.812000", "093741.812000", "093741.828000", "093741.828000", "093741.828000", "093741.828000", "093741.828000", "093741.828000", "093741.828000", "093741.843000", "093741.843000", "093741.843000", "093741.843000", "093741.843000", "093741.843000", "093741.843000", "093801.812000", "093801.812000", "093801.812000", "093801.812000", "093801.812000", "093801.828000", "093801.828000", "093801.828000", "093801.828000", "093801.828000", "093801.828000", "093801.843000", "093801.843000", "093801.843000", "093801.843000", "093801.843000", "093801.859000", "093801.859000", "093801.859000", "093801.859000", "093817.859000", "093817.859000", "093817.859000", "093817.859000", "093817.875000", "093817.875000", "093817.875000", "093817.875000", "093817.875000", "093817.875000", "093817.890000", "093817.890000"],
      "InstanceNumber": [1, 2, 3, 4, 5, 6, 7, 8, 9, 10, 11, 12, 13, 14, 15, 16, 17, 18, 19, 20, 21, 22, 23, 24, 25, 26, 27, 28, 29, 30, 31, 32, 33, 34, 35, 36, 37, 38, 39, 40, 41, 42, 43, 44, 45, 46, 47, 48, 49, 50, 51, 52, 53, 54, 55, 56, 57, 58, 59, 60, 61, 62, 63, 64, 65, 66, 67, 68, 69, 70, 71, 72, 73, 74, 75, 76, 77, 78, 79, 80, 81, 82, 83, 84, 85, 86, 87, 88, 89, 90, 91, 92, 93, 94, 95, 96, 97, 98, 99, 100, 101, 102, 103, 104, 105, 106, 107, 108, 109, 110, 111, 112, 113, 114, 115, 116, 117, 118, 119, 120, 121, 122, 123, 124, 125, 126, 127, 128, 129, 130, 131, 132, 133, 134, 135, 136, 137, 138, 139, 140, 141, 142, 143, 144, 145, 146, 147, 148, 149, 150, 151, 152, 153, 154, 155, 156, 157, 158, 159, 160, 161, 162, 163, 164, 165, 166, 167, 168, 169, 170, 171, 172, 173, 174, 175, 176, 177, 178, 179, 180, 181, 182, 183, 184, 185, 186, 187, 188, 189, 190, 191, 192, 193, 194, 195, 196, 197, 198, 199, 200, 201, 202, 203, 204, 205, 206, 207, 208, 209, 210, 211, 212, 213, 214, 215, 216, 217, 218, 219, 220, 221, 222, 223, 224, 225, 226, 227, 228, 229, 230, 231, 232, 233, 234, 235, 236, 237, 238, 239, 240, 241, 242, 243, 244, 245, 246, 247, 248, 249, 250, 251, 252, 253, 254, 255, 256, 257, 258, 259, 260, 261, 262, 263, 264, 265, 266, 267, 268, 269, 270, 271, 272, 273, 274, 275, 276, 277, 278, 279, 280, 281, 282, 283, 284, 285, 286, 287, 288, 289, 290, 291, 292, 293, 294, 295, 296, 297, 298, 299, 300, 301, 302, 303, 304, 305, 306, 307, 308, 309, 310, 311, 312, 313, 314, 315, 316, 317, 318, 319, 320, 321, 322, 323, 324, 325, 326, 327, 328, 329, 330],
      "LargestImagePixelValue": [2092, 2071, 2090, 2132, 2105, 2068, 2085, 2062, 2048, 2043, 2022, 2052, 2057, 2081, 2089, 2095, 2088, 2093, 2048, 2072, 2013, 2044, 2034, 2057, 2035, 2022, 2037, 2061, 2054, 2068, 2047, 2036, 2030, 2056, 2050, 2061, 2049, 2061, 2056, 2062, 2059, 2089, 2063, 2071, 2068, 2045, 2031, 2054, 2079, 2071, 2047, 2084, 2061, 2032, 2072, 2085, 2074, 2083, 2079, 2106, 2057, 2055, 2067, 2057, 2053, 2046, 2065, 2041, 2075, 2064, 2064, 2059, 2048, 2076, 2085, 2084, 2019, 2056, 2049, 2021, 2059, 2041, 2050, 2036, 2055, 2050, 2048, 2043, 2076, 2081, 2032, 2044, 2044, 2034, 2038, 2036, 2004, 2042, 2045, 2021, 2025, 2057, 2053, 2075, 2055, 2027, 2038, 2046, 2057, 2055, 2066, 2074, 2057, 2058, 2049, 1989, 2024, 2034, 2100, 2073, 2043, 2014, 2046, 2064, 2052, 2081, 2055, 2065, 2084, 2033, 2050, 2017, 2036, 1996, 2053, 2092, 2055, 2067, 2082, 2034, 2052, 2036, 2045, 2034, 2053, 2012, 2025, 2070, 2049, 2071, 2047, 2056, 2069, 2084, 2057, 2048, 2083, 2030, 2033, 2054, 2056, 2036, 2053, 2062, 2090, 2073, 2051, 2059, 2024, 2059, 2069, 2072, 2066, 2056, 2065, 2054, 2046, 2068, 2054, 2087, 2047, 2016, 2038, 1999, 2040, 2028, 2017, 2075, 2046, 2075, 2017, 2022, 2048, 2042, 2010, 2000, 1998, 2039, 2057, 2054, 2038, 2055, 2066, 2034, 1983, 2036, 2032, 2040, 2087, 2057, 2066, 2100, 2068, 2074, 2044, 2038, 2012, 2008, 2027, 2045, 2037, 2033, 2033, 2087, 2092, 2053, 2074, 2049, 2065, 2069, 2045, 2005, 2043, 2031, 2057, 2048, 2037, 2063, 2058, 1995, 2030, 2031, 2055, 2043, 2027, 2014, 2028, 2060, 2049, 2034, 2070, 2026, 2026, 2038, 2059, 2023, 2024, 2064, 2062, 2051, 2064, 2045, 2097, 2049, 2061, 2028, 2038, 2094, 2043, 2034, 2061, 2029, 2020, 2021, 2070, 2045, 2069, 2060, 2067, 2061, 2082, 2068, 2066, 2057, 2058, 2040, 2047, 2081, 2064, 2035, 2065, 2049, 2053, 2084, 2062, 2042, 2054, 2076, 2057, 2053, 2079, 2073, 2042, 2041, 2027, 2049, 2076, 2051, 2083, 2099, 2098, 2059, 2083, 2110, 2096, 2111, 2106, 2128, 2107, 2075, 2079, 2075, 2062, 2039, 2081, 2099, 2079, 2054, 2077, 2031],
      "WindowCenter": [416.0, 416.0, 415.0, 416.0, 414.0, 413.0, 413.0, 413.0, 414.0, 415.0, 416.0, 416.0, 416.0, 417.0, 417.0, 418.0, 417.0, 417.0, 415.0, 415.0, 415.0, 416.0, 415.0, 416.0, 415.0, 416.0, 415.0, 416.0, 416.0, 415.0, 414.0, 414.0, 414.0, 414.0, 414.0, 416.0, 416.0, 416.0, 416.0, 415.0, 416.0, 416.0, 416.0, 415.0, 415.0, 415.0, 416.0, 416.0, 416.0, 416.0, 415.0, 415.0, 414.0, 414.0, 415.0, 416.0, 416.0, 416.0, 416.0, 417.0, 417.0, 416.0, 417.0, 416.0, 416.0, 416.0, 417.0, 417.0, 416.0, 416.0, 416.0, 416.0, 415.0, 416.0, 416.0, 417.0, 417.0, 416.0, 416.0, 416.0, 416.0, 416.0, 414.0, 414.0, 415.0, 415.0, 416.0, 416.0, 416.0, 416.0, 415.0, 414.0, 414.0, 414.0, 414.0, 414.0, 414.0, 415.0, 415.0, 415.0, 416.0, 416.0, 415.0, 415.0, 414.0, 414.0, 414.0, 415.0, 416.0, 416.0, 416.0, 415.0, 415.0, 415.0, 414.0, 414.0, 415.0, 416.0, 417.0, 417.0, 417.0, 416.0, 416.0, 416.0, 417.0, 417.0, 416.0, 415.0, 414.0, 415.0, 415.0, 414.0, 415.0, 415.0, 416.0, 416.0, 417.0, 417.0, 416.0, 416.0, 415.0, 415.0, 414.0, 416.0, 416.0, 416.0, 416.0, 417.0, 417.0, 416.0, 416.0, 416.0, 416.0, 417.0, 416.0, 415.0, 416.0, 415.0, 415.0, 415.0, 415.0, 415.0, 415.0, 414.0, 415.0, 416.0, 416.0, 416.0, 416.0, 416.0, 415.0, 415.0, 415.0, 414.0, 414.0, 414.0, 415.0, 415.0, 416.0, 416.0, 416.0, 415.0, 415.0, 415.0, 415.0, 416.0, 416.0, 416.0, 416.0, 417.0, 416.0, 415.0, 415.0, 414.0, 414.0, 414.0, 415.0, 416.0, 416.0, 416.0, 414.0, 414.0, 414.0, 415.0, 415.0, 416.0, 416.0, 416.0, 416.0, 417.0, 417.0, 416.0, 415.0, 414.0, 414.0, 414.0, 415.0, 415.0, 416.0, 416.0, 416.0, 416.0, 415.0, 415.0, 416.0, 416.0, 416.0, 417.0, 417.0, 417.0, 416.0, 415.0, 416.0, 416.0, 416.0, 416.0, 415.0, 415.0, 416.0, 415.0, 416.0, 416.0, 417.0, 417.0, 417.0, 416.0, 417.0, 417.0, 417.0, 417.0, 417.0, 415.0, 415.0, 415.0, 415.0, 416.0, 417.0, 417.0, 417.0, 417.0, 417.0, 416.0, 416.0, 416.0, 416.0, 416.0, 416.0, 416.0, 415.0, 416.0, 416.0, 415.0, 415.0, 416.0, 416.0, 417.0, 417.0, 417.0, 416.0, 416.0, 416.0, 416.0, 415.0, 415.0, 416.0, 416.0, 416.0, 416.0, 416.0, 416.0, 416.0, 416.0, 416.0, 416.0, 416.0, 415.0, 417.0, 417.0, 417.0, 417.0, 417.0, 416.0, 416.0, 415.0, 416.0, 417.0, 417.0, 417.0, 417.0, 416.0, 416.0, 417.0, 418.0, 419.0, 418.0, 418.0, 417.0, 416.0, 416.0, 416.0, 416.0, 416.0, 416.0, 416.0, 416.0, 417.0, 417.0, 416.0, 416.0, 416.0],
