{
  "AcquisitionMatrixPE": 104,
  "AcquisitionNumber": 1,
  "AcquisitionTime": "09:13:21.840000",
  "BandwidthPerPixelPhaseEncode": 43.054,
  "BaseResolution": 104,
  "CoilString": "C:E1_2",
  "ConversionSoftware": "dcm2niix",
  "ConversionSoftwareVersion": "v1.0.20191031",
  "DerivedVendorReportedEchoSpacing": 0.000669999,
  "DeviceSerialNumber": "18932",
  "DwellTime": 2.8e-06,
  "EchoTime": 0.02,
  "EffectiveEchoSpacing": 0.000223333,
  "FlipAngle": 30,
  "ImageComments": "Unaliased_MB2_PE2",
  "ImageOrientationPatientDICOM": [1, 0, 0, 0, 0.992546, -0.121869],
  "ImageType": [
    "ORIGINAL",
    "PRIMARY",
    "M",
    "MB",
    "ND",
    "MOSAIC"
],
  "ImagingFrequency": 297.23,
  "InPlanePhaseEncodingDirectionDICOM": "COL",
  "InstitutionAddress": "Richmond_Street_North_1151_London_409EF2_Ontario_CA_N6A_5B7",
  "InstitutionName": "Robarts_Reserch_Institute",
  "InstitutionalDepartmentName": "Department",
  "MRAcquisitionType": "2D",
  "MagneticFieldStrength": 6.98,
  "Manufacturer": "Siemens",
  "ManufacturersModelName": "Investigational_Device_7T",
  "Modality": "MR",
  "MultibandAccelerationFactor": 2,
  "ParallelReductionFactorInPlane": 3,
  "PartialFourier": 0.875,
  "PatientPosition": "HFS",
  "PercentPhaseFOV": 100,
  "PhaseEncodingDirection": "j-",
  "PhaseEncodingSteps": 91,
  "PhaseResolution": 1,
  "PixelBandwidth": 1717,
  "ProcedureStepDescription": "Diedrichsen_SeqRep4",
  "ProtocolName": "mbep2d_bold_mb2_p3_AP_2iso",
  "PulseSequenceDetails": "%CustomerSeq%_cmrr_mbep2d_bold",
  "ReceiveCoilName": "CFMM_8Tx32Rx",
  "ReconMatrixPE": 104,
  "RefLinesPE": 36,
  "RepetitionTime": 1,
  "ScanOptions": "PFP_FS",
  "ScanningSequence": "EP",
  "SequenceName": "epfid2d1_104",
  "SequenceVariant": "SK_SS",
  "SeriesDescription": "mbep2d_bold_mb2_p3_AP_2iso",
  "SeriesNumber": 12,
  "ShimSetting": [-39, 2025, 376, 241, 228, 77, -97, -67],
  "SliceThickness": 2,
  "SliceTiming": [0, 0.2275, 0.455, 0.6825, 0.91, 0.135, 0.3625, 0.5925, 0.82, 0.045, 0.2725, 0.5, 0.7275, 0.9575, 0.18, 0.41, 0.6375, 0.865, 0.09, 0.3175, 0.545, 0.775, 0, 0.2275, 0.455, 0.6825, 0.91, 0.135, 0.3625, 0.5925, 0.82, 0.045, 0.2725, 0.5, 0.7275, 0.9575, 0.18, 0.41, 0.6375, 0.865, 0.09, 0.3175, 0.545, 0.775],
  "SoftwareVersions": "syngo_MR_B17",
  "SpacingBetweenSlices": 2,
  "StationName": "MASTER",
  "TaskName": "dsp",
  "TotalReadoutTime": 0.0230033,
  "TxRefAmp": 120,
  "dcmmeta_affine": [
    [-2.0, 0.0, 0.0, 108.35835266113281],
    [0.0, 1.985092282295227, -0.24373869597911835, -107.62377166748047],
    [0.0, 0.24373868107795715, 1.985092282295227, -34.82061767578125],
    [0.0, 0.0, 0.0, 1.0]
],
  "dcmmeta_reorient_transform": [
    [0.0, -1.0, 0.0, 103.0],
    [1.0, 0.0, 0.0, 0.0],
    [0.0, 0.0, 1.0, 0.0],
    [0.0, 0.0, 0.0, 1.0]
],
  "dcmmeta_shape": [104, 104, 44, 330],
  "dcmmeta_slice_dim": 2,
  "dcmmeta_version": 0.6,
  "global": {
    "const": {
      "AcquisitionMatrix": [104, 0, 0, 104],
      "AngioFlag": "N",
      "BitsAllocated": 16,
      "BitsStored": 12,
      "Columns": 728,
      "EchoNumbers": 1,
      "EchoTime": 20.0,
      "EchoTrainLength": 1,
      "FlipAngle": 30.0,
      "HighBit": 11,
      "ImageOrientationPatient": [1.0, 0.0, 0.0, 0.0, 0.99254615167353, -0.1218693431428],
      "ImagePositionPatient": [-732.35835361481, -716.18953612814, 66.330935824086],
      "ImageType": [
        "ORIGINAL",
        "PRIMARY",
        "M",
        "MB",
        "ND",
        "MOSAIC"
],
      "ImagedNucleus": "1H",
      "ImagingFrequency": 297.230124,
      "InPlanePhaseEncodingDirection": "COL",
      "MRAcquisitionType": "2D",
      "MagneticFieldStrength": 6.98,
      "Manufacturer": "SIEMENS",
      "ManufacturerModelName": "Investigational_Device_7T",
      "Modality": "MR",
      "NumberOfAverages": 1.0,
      "NumberOfPhaseEncodingSteps": 91,
      "PercentPhaseFieldOfView": 100.0,
      "PercentSampling": 100.0,
      "PerformedProcedureStepStartTime": "085638.812000",
      "PhotometricInterpretation": "MONOCHROME2",
      "PixelBandwidth": 1717.0,
      "PixelRepresentation": 0,
      "PixelSpacing": [2.0, 2.0],
      "ProtocolName": "mbep2d_bold_mb2_p3_AP 2iso",
      "RepetitionTime": 1000.0,
      "Rows": 728,
      "SAR": 0.0,
      "SamplesPerPixel": 1,
      "ScanOptions": [
        "PFP",
        "FS"
],
      "ScanningSequence": "EP",
      "SequenceName": "epfid2d1_104",
      "SequenceVariant": [
        "SK",
        "SS"
],
      "SeriesDescription": "mbep2d_bold_mb2_p3_AP 2iso",
      "SeriesNumber": 12,
      "SeriesTime": "091401.859000",
      "SliceLocation": -21.445033244596,
      "SliceThickness": 2.0,
      "SmallestImagePixelValue": 0,
      "SoftwareVersions": "syngo MR B17",
      "SpacingBetweenSlices": 2.0000000380287,
      "SpecificCharacterSet": "ISO_IR 100",
      "StudyID": "1",
      "StudyTime": "085638.765000",
      "TransmitCoilName": "CFMM_8Tx32Rx",
      "VariableFlipAngleFlag": "N",
      "WindowCenterWidthExplanation": "Algo1",
      "dBdt": 0.0},
    "slices": {}
  },
  "time": {
    "samples": {
      "AcquisitionNumber": [1, 2, 3, 4, 5, 6, 7, 8, 9, 10, 11, 12, 13, 14, 15, 16, 17, 18, 19, 20, 21, 22, 23, 24, 25, 26, 27, 28, 29, 30, 31, 32, 33, 34, 35, 36, 37, 38, 39, 40, 41, 42, 43, 44, 45, 46, 47, 48, 49, 50, 51, 52, 53, 54, 55, 56, 57, 58, 59, 60, 61, 62, 63, 64, 65, 66, 67, 68, 69, 70, 71, 72, 73, 74, 75, 76, 77, 78, 79, 80, 81, 82, 83, 84, 85, 86, 87, 88, 89, 90, 91, 92, 93, 94, 95, 96, 97, 98, 99, 100, 101, 102, 103, 104, 105, 106, 107, 108, 109, 110, 111, 112, 113, 114, 115, 116, 117, 118, 119, 120, 121, 122, 123, 124, 125, 126, 127, 128, 129, 130, 131, 132, 133, 134, 135, 136, 137, 138, 139, 140, 141, 142, 143, 144, 145, 146, 147, 148, 149, 150, 151, 152, 153, 154, 155, 156, 157, 158, 159, 160, 161, 162, 163, 164, 165, 166, 167, 168, 169, 170, 171, 172, 173, 174, 175, 176, 177, 178, 179, 180, 181, 182, 183, 184, 185, 186, 187, 188, 189, 190, 191, 192, 193, 194, 195, 196, 197, 198, 199, 200, 201, 202, 203, 204, 205, 206, 207, 208, 209, 210, 211, 212, 213, 214, 215, 216, 217, 218, 219, 220, 221, 222, 223, 224, 225, 226, 227, 228, 229, 230, 231, 232, 233, 234, 235, 236, 237, 238, 239, 240, 241, 242, 243, 244, 245, 246, 247, 248, 249, 250, 251, 252, 253, 254, 255, 256, 257, 258, 259, 260, 261, 262, 263, 264, 265, 266, 267, 268, 269, 270, 271, 272, 273, 274, 275, 276, 277, 278, 279, 280, 281, 282, 283, 284, 285, 286, 287, 288, 289, 290, 291, 292, 293, 294, 295, 296, 297, 298, 299, 300, 301, 302, 303, 304, 305, 306, 307, 308, 309, 310, 311, 312, 313, 314, 315, 316, 317, 318, 319, 320, 321, 322, 323, 324, 325, 326, 327, 328, 329, 330],
      "AcquisitionTime": ["091321.840000", "091322.842500", "091323.847500", "091324.850000", "091325.855000", "091326.860000", "091327.862500", "091328.867500", "091329.870000", "091330.875000", "091331.880000", "091332.882500", "091333.887500", "091334.890000", "091335.895000", "091336.900000", "091337.902500", "091338.907500", "091339.910000", "091340.915000", "091341.920000", "091342.922500", "091343.927500", "091344.930000", "091345.935000", "091346.940000", "091347.942500", "091348.947500", "091349.950000", "091350.955000", "091351.960000", "091352.962500", "091353.967500", "091354.972500", "091355.975000", "091356.980000", "091357.982500", "091358.987500", "091359.992500", "091400.995000", "091402.000000", "091403.002500", "091404.007500", "091405.012500", "091406.015000", "091407.020000", "091408.022500", "091409.027500", "091410.032500", "091411.035000", "091412.040000", "091413.042500", "091414.047500", "091415.052500", "091416.055000", "091417.060000", "091418.062500", "091419.067500", "091420.072500", "091421.075000", "091422.080000", "091423.085000", "091424.087500", "091425.092500", "091426.095000", "091427.100000", "091428.105000", "091429.107500", "091430.112500", "091431.115000", "091432.120000", "091433.125000", "091434.127500", "091435.132500", "091436.135000", "091437.140000", "091438.145000", "091439.147500", "091440.152500", "091441.155000", "091442.160000", "091443.165000", "091444.167500", "091445.172500", "091446.175000", "091447.180000", "091448.185000", "091449.187500", "091450.192500", "091451.195000", "091452.200000", "091453.205000", "091454.207500", "091455.212500", "091456.217500", "091457.220000", "091458.225000", "091459.227500", "091500.232500", "091501.237500", "091502.240000", "091503.245000", "091504.247500", "091505.252500", "091506.257500", "091507.260000", "091508.265000", "091509.267500", "091510.272500", "091511.277500", "091512.280000", "091513.285000", "091514.287500", "091515.292500", "091516.297500", "091517.300000", "091518.305000", "091519.307500", "091520.312500", "091521.317500", "091522.320000", "091523.325000", "091524.330000", "091525.332500", "091526.337500", "091527.340000", "091528.345000", "091529.350000", "091530.352500", "091531.357500", "091532.360000", "091533.365000", "091534.370000", "091535.372500", "091536.377500", "091537.380000", "091538.385000", "091539.390000", "091540.392500", "091541.397500", "091542.400000", "091543.405000", "091544.410000", "091545.412500", "091546.417500", "091547.420000", "091548.425000", "091549.430000", "091550.432500", "091551.437500", "091552.440000", "091553.445000", "091554.450000", "091555.452500", "091556.457500", "091557.462500", "091558.465000", "091559.470000", "091600.472500", "091601.477500", "091602.482500", "091603.485000", "091604.490000", "091605.492500", "091606.497500", "091607.502500", "091608.505000", "091609.510000", "091610.512500", "091611.517500", "091612.522500", "091613.525000", "091614.530000", "091615.532500", "091616.537500", "091617.542500", "091618.545000", "091619.550000", "091620.552500", "091621.557500", "091622.562500", "091623.565000", "091624.570000", "091625.572500", "091626.577500", "091627.582500", "091628.585000", "091629.590000", "091630.595000", "091631.597500", "091632.602500", "091633.605000", "091634.610000", "091635.615000", "091636.617500", "091637.622500", "091638.625000", "091639.630000", "091640.635000", "091641.637500", "091642.642500", "091643.645000", "091644.650000", "091645.655000", "091646.657500", "091647.662500", "091648.665000", "091649.670000", "091650.675000", "091651.677500", "091652.682500", "091653.685000", "091654.690000", "091655.695000", "091656.697500", "091657.702500", "091658.707500", "091659.710000", "091700.715000", "091701.717500", "091702.722500", "091703.727500", "091704.730000", "091705.735000", "091706.737500", "091707.742500", "091708.747500", "091709.750000", "091710.755000", "091711.757500", "091712.762500", "091713.767500", "091714.770000", "091715.775000", "091716.777500", "091717.782500", "091718.787500", "091719.790000", "091720.795000", "091721.797500", "091722.802500", "091723.807500", "091724.810000", "091725.815000", "091726.817500", "091727.822500", "091728.827500", "091729.830000", "091730.835000", "091731.840000", "091732.842500", "091733.847500", "091734.850000", "091735.855000", "091736.860000", "091737.862500", "091738.867500", "091739.870000", "091740.875000", "091741.880000", "091742.882500", "091743.887500", "091744.890000", "091745.895000", "091746.900000", "091747.902500", "091748.907500", "091749.910000", "091750.915000", "091751.920000", "091752.922500", "091753.927500", "091754.930000", "091755.935000", "091756.940000", "091757.942500", "091758.947500", "091759.950000", "091800.955000", "091801.960000", "091802.962500", "091803.967500", "091804.972500", "091805.975000", "091806.980000", "091807.982500", "091808.987500", "091809.992500", "091810.995000", "091812.000000", "091813.002500", "091814.007500", "091815.012500", "091816.015000", "091817.020000", "091818.022500", "091819.027500", "091820.032500", "091821.035000", "091822.040000", "091823.042500", "091824.047500", "091825.052500", "091826.055000", "091827.060000", "091828.062500", "091829.067500", "091830.072500", "091831.075000", "091832.080000", "091833.085000", "091834.087500", "091835.092500", "091836.095000", "091837.100000", "091838.105000", "091839.107500", "091840.112500", "091841.115000", "091842.120000", "091843.125000", "091844.127500", "091845.132500", "091846.135000", "091847.140000", "091848.145000", "091849.147500", "091850.152500", "091851.155000", "091852.160000"],
      "ContentTime": ["091401.859000", "091401.859000", "091401.859000", "091401.875000", "091401.875000", "091401.875000", "091401.875000", "091401.875000", "091401.875000", "091401.875000", "091401.890000", "091401.890000", "091401.890000", "091401.890000", "091401.890000", "091401.890000", "091401.890000", "091401.906000", "091401.906000", "091401.906000", "091401.906000", "091401.906000", "091401.906000", "091401.921000", "091401.921000", "091401.921000", "091401.921000", "091401.921000", "091401.921000", "091401.921000", "091401.937000", "091401.937000", "091401.937000", "091401.937000", "091401.937000", "091401.937000", "091401.937000", "091401.953000", "091421.812000", "091421.812000", "091421.812000", "091421.828000", "091421.828000", "091421.828000", "091421.828000", "091421.828000", "091421.828000", "091421.828000", "091421.843000", "091421.843000", "091421.843000", "091421.843000", "091421.843000", "091421.859000", "091421.859000", "091421.859000", "091421.859000", "091421.859000", "091441.812000", "091441.812000", "091441.812000", "091441.812000", "091441.812000", "091441.812000", "091441.828000", "091441.828000", "091441.828000", "091441.828000", "091441.828000", "091441.843000", "091441.843000", "091441.843000", "091441.843000", "091441.843000", "091441.843000", "091441.843000", "091441.859000", "091441.859000", "091501.812000", "091501.812000", "091501.812000", "091501.812000", "091501.828000", "091501.828000", "091501.828000", "091501.828000", "091501.828000", "091501.843000", "091501.843000", "091501.843000", "091501.843000", "091501.843000", "091501.843000", "091501.859000", "091501.859000", "091501.859000", "091501.859000", "091501.859000", "091521.812000", "091521.812000", "091521.812000", "091521.812000", "091521.828000", "091521.828000", "091521.828000", "091521.828000", "091521.828000", "091521.828000", "091521.828000", "091521.843000", "091521.843000", "091521.843000", "091521.843000", "091521.843000", "091521.843000", "091521.843000", "091521.859000", "091521.859000", "091541.812000", "091541.812000", "091541.812000", "091541.812000", "091541.812000", "091541.812000", "091541.828000", "091541.828000", "091541.828000", "091541.828000", "091541.828000", "091541.828000", "091541.828000", "091541.843000", "091541.843000", "091541.843000", "091541.843000", "091541.859000", "091541.859000", "091541.859000", "091601.812000", "091601.812000", "091601.812000", "091601.812000", "091601.828000", "091601.828000", "091601.828000", "091601.828000", "091601.828000", "091601.843000", "091601.843000", "091601.843000", "091601.843000", "091601.843000", "091601.843000", "091601.843000", "091601.859000", "091601.859000", "091601.859000", "091601.859000", "091621.812000", "091621.812000", "091621.812000", "091621.812000", "091621.812000", "091621.812000", "091621.828000", "091621.828000", "091621.828000", "091621.828000", "091621.828000", "091621.843000", "091621.843000", "091621.843000", "091621.843000", "091621.843000", "091621.843000", "091621.843000", "091621.859000", "091621.859000", "091641.812000", "091641.812000", "091641.812000", "091641.812000", "091641.812000", "091641.812000", "091641.828000", "091641.828000", "091641.843000", "091641.843000", "091641.843000", "091641.843000", "091641.843000", "091641.859000", "091641.859000", "091641.859000", "091641.859000", "091641.859000", "091641.859000", "091641.859000", "091701.812000", "091701.812000", "091701.812000", "091701.812000", "091701.812000", "091701.812000", "091701.828000", "091701.828000", "091701.828000", "091701.828000", "091701.828000", "091701.828000", "091701.828000", "091701.843000", "091701.843000", "091701.843000", "091701.843000", "091701.843000", "091701.843000", "091701.843000", "091721.812000", "091721.812000", "091721.812000", "091721.812000", "091721.812000", "091721.812000", "091721.828000", "091721.828000", "091721.828000", "091721.828000", "091721.828000", "091721.828000", "091721.828000", "091721.843000", "091721.843000", "091721.843000", "091721.843000", "091721.843000", "091721.859000", "091721.859000", "091741.812000", "091741.812000", "091741.812000", "091741.828000", "091741.828000", "091741.828000", "091741.828000", "091741.828000", "091741.828000", "091741.828000", "091741.843000", "091741.843000", "091741.843000", "091741.843000", "091741.843000", "091741.843000", "091741.843000", "091741.843000", "091741.859000", "091741.859000", "091801.812000", "091801.812000", "091801.812000", "091801.812000", "091801.812000", "091801.812000", "091801.828000", "091801.828000", "091801.828000", "091801.828000", "091801.828000", "091801.843000", "091801.843000", "091801.843000", "091801.843000", "091801.843000", "091801.843000", "091801.843000", "091801.859000", "091801.859000", "091821.812000", "091821.812000", "091821.812000", "091821.812000", "091821.812000", "091821.812000", "091821.828000", "091821.828000", "091821.828000", "091821.828000", "091821.828000", "091821.828000", "091821.828000", "091821.843000", "091821.843000", "091821.843000", "091821.843000", "091821.843000", "091821.843000", "091821.843000", "091841.812000", "091841.812000", "091841.812000", "091841.812000", "091841.812000", "091841.812000", "091841.828000", "091841.828000", "091841.828000", "091841.828000", "091841.843000", "091841.843000", "091841.843000", "091841.843000", "091841.843000", "091841.843000", "091841.843000", "091841.843000", "091841.859000", "091841.859000", "091858.015000", "091858.015000", "091858.015000", "091858.015000", "091858.015000", "091858.015000", "091858.031000", "091858.031000", "091858.031000", "091858.031000", "091858.031000", "091858.031000"],
      "InstanceCreationTime": ["091401.859000", "091401.859000", "091401.859000", "091401.875000", "091401.875000", "091401.875000", "091401.875000", "091401.875000", "091401.875000", "091401.875000", "091401.890000", "091401.890000", "091401.890000", "091401.890000", "091401.890000", "091401.890000", "091401.890000", "091401.906000", "091401.906000", "091401.906000", "091401.906000", "091401.906000", "091401.906000", "091401.921000", "091401.921000", "091401.921000", "091401.921000", "091401.921000", "091401.921000", "091401.921000", "091401.937000", "091401.937000", "091401.937000", "091401.937000", "091401.937000", "091401.937000", "091401.937000", "091401.953000", "091421.812000", "091421.812000", "091421.812000", "091421.828000", "091421.828000", "091421.828000", "091421.828000", "091421.828000", "091421.828000", "091421.828000", "091421.843000", "091421.843000", "091421.843000", "091421.843000", "091421.843000", "091421.859000", "091421.859000", "091421.859000", "091421.859000", "091421.859000", "091441.812000", "091441.812000", "091441.812000", "091441.812000", "091441.812000", "091441.812000", "091441.828000", "091441.828000", "091441.828000", "091441.828000", "091441.828000", "091441.843000", "091441.843000", "091441.843000", "091441.843000", "091441.843000", "091441.843000", "091441.843000", "091441.859000", "091441.859000", "091501.812000", "091501.812000", "091501.812000", "091501.812000", "091501.828000", "091501.828000", "091501.828000", "091501.828000", "091501.828000", "091501.843000", "091501.843000", "091501.843000", "091501.843000", "091501.843000", "091501.843000", "091501.859000", "091501.859000", "091501.859000", "091501.859000", "091501.859000", "091521.812000", "091521.812000", "091521.812000", "091521.812000", "091521.828000", "091521.828000", "091521.828000", "091521.828000", "091521.828000", "091521.828000", "091521.828000", "091521.843000", "091521.843000", "091521.843000", "091521.843000", "091521.843000", "091521.843000", "091521.843000", "091521.859000", "091521.859000", "091541.812000", "091541.812000", "091541.812000", "091541.812000", "091541.812000", "091541.812000", "091541.828000", "091541.828000", "091541.828000", "091541.828000", "091541.828000", "091541.828000", "091541.828000", "091541.843000", "091541.843000", "091541.843000", "091541.843000", "091541.859000", "091541.859000", "091541.859000", "091601.812000", "091601.812000", "091601.812000", "091601.812000", "091601.828000", "091601.828000", "091601.828000", "091601.828000", "091601.828000", "091601.843000", "091601.843000", "091601.843000", "091601.843000", "091601.843000", "091601.843000", "091601.843000", "091601.859000", "091601.859000", "091601.859000", "091601.859000", "091621.812000", "091621.812000", "091621.812000", "091621.812000", "091621.812000", "091621.812000", "091621.828000", "091621.828000", "091621.828000", "091621.828000", "091621.828000", "091621.843000", "091621.843000", "091621.843000", "091621.843000", "091621.843000", "091621.843000", "091621.843000", "091621.859000", "091621.859000", "091641.812000", "091641.812000", "091641.812000", "091641.812000", "091641.812000", "091641.812000", "091641.828000", "091641.828000", "091641.843000", "091641.843000", "091641.843000", "091641.843000", "091641.843000", "091641.859000", "091641.859000", "091641.859000", "091641.859000", "091641.859000", "091641.859000", "091641.859000", "091701.812000", "091701.812000", "091701.812000", "091701.812000", "091701.812000", "091701.812000", "091701.828000", "091701.828000", "091701.828000", "091701.828000", "091701.828000", "091701.828000", "091701.828000", "091701.843000", "091701.843000", "091701.843000", "091701.843000", "091701.843000", "091701.843000", "091701.843000", "091721.812000", "091721.812000", "091721.812000", "091721.812000", "091721.812000", "091721.812000", "091721.828000", "091721.828000", "091721.828000", "091721.828000", "091721.828000", "091721.828000", "091721.828000", "091721.843000", "091721.843000", "091721.843000", "091721.843000", "091721.843000", "091721.859000", "091721.859000", "091741.812000", "091741.812000", "091741.812000", "091741.828000", "091741.828000", "091741.828000", "091741.828000", "091741.828000", "091741.828000", "091741.828000", "091741.843000", "091741.843000", "091741.843000", "091741.843000", "091741.843000", "091741.843000", "091741.843000", "091741.843000", "091741.859000", "091741.859000", "091801.812000", "091801.812000", "091801.812000", "091801.812000", "091801.812000", "091801.812000", "091801.828000", "091801.828000", "091801.828000", "091801.828000", "091801.828000", "091801.843000", "091801.843000", "091801.843000", "091801.843000", "091801.843000", "091801.843000", "091801.843000", "091801.859000", "091801.859000", "091821.812000", "091821.812000", "091821.812000", "091821.812000", "091821.812000", "091821.812000", "091821.828000", "091821.828000", "091821.828000", "091821.828000", "091821.828000", "091821.828000", "091821.828000", "091821.843000", "091821.843000", "091821.843000", "091821.843000", "091821.843000", "091821.843000", "091821.843000", "091841.812000", "091841.812000", "091841.812000", "091841.812000", "091841.812000", "091841.812000", "091841.828000", "091841.828000", "091841.828000", "091841.828000", "091841.843000", "091841.843000", "091841.843000", "091841.843000", "091841.843000", "091841.843000", "091841.843000", "091841.843000", "091841.859000", "091841.859000", "091858.015000", "091858.015000", "091858.015000", "091858.015000", "091858.015000", "091858.015000", "091858.031000", "091858.031000", "091858.031000", "091858.031000", "091858.031000", "091858.031000"],
      "InstanceNumber": [1, 2, 3, 4, 5, 6, 7, 8, 9, 10, 11, 12, 13, 14, 15, 16, 17, 18, 19, 20, 21, 22, 23, 24, 25, 26, 27, 28, 29, 30, 31, 32, 33, 34, 35, 36, 37, 38, 39, 40, 41, 42, 43, 44, 45, 46, 47, 48, 49, 50, 51, 52, 53, 54, 55, 56, 57, 58, 59, 60, 61, 62, 63, 64, 65, 66, 67, 68, 69, 70, 71, 72, 73, 74, 75, 76, 77, 78, 79, 80, 81, 82, 83, 84, 85, 86, 87, 88, 89, 90, 91, 92, 93, 94, 95, 96, 97, 98, 99, 100, 101, 102, 103, 104, 105, 106, 107, 108, 109, 110, 111, 112, 113, 114, 115, 116, 117, 118, 119, 120, 121, 122, 123, 124, 125, 126, 127, 128, 129, 130, 131, 132, 133, 134, 135, 136, 137, 138, 139, 140, 141, 142, 143, 144, 145, 146, 147, 148, 149, 150, 151, 152, 153, 154, 155, 156, 157, 158, 159, 160, 161, 162, 163, 164, 165, 166, 167, 168, 169, 170, 171, 172, 173, 174, 175, 176, 177, 178, 179, 180, 181, 182, 183, 184, 185, 186, 187, 188, 189, 190, 191, 192, 193, 194, 195, 196, 197, 198, 199, 200, 201, 202, 203, 204, 205, 206, 207, 208, 209, 210, 211, 212, 213, 214, 215, 216, 217, 218, 219, 220, 221, 222, 223, 224, 225, 226, 227, 228, 229, 230, 231, 232, 233, 234, 235, 236, 237, 238, 239, 240, 241, 242, 243, 244, 245, 246, 247, 248, 249, 250, 251, 252, 253, 254, 255, 256, 257, 258, 259, 260, 261, 262, 263, 264, 265, 266, 267, 268, 269, 270, 271, 272, 273, 274, 275, 276, 277, 278, 279, 280, 281, 282, 283, 284, 285, 286, 287, 288, 289, 290, 291, 292, 293, 294, 295, 296, 297, 298, 299, 300, 301, 302, 303, 304, 305, 306, 307, 308, 309, 310, 311, 312, 313, 314, 315, 316, 317, 318, 319, 320, 321, 322, 323, 324, 325, 326, 327, 328, 329, 330],
      "LargestImagePixelValue": [2202, 2206, 2039, 2059, 2035, 2135, 2019, 2033, 2036, 2114, 2023, 2032, 2013, 2021, 2005, 2085, 2148, 2116, 2103, 2113, 2094, 2140, 2088, 2106, 2073, 2149, 2036, 2116, 2100, 2058, 2108, 2133, 2030, 1999, 2063, 2117, 2027, 2048, 2072, 2000, 2032, 2163, 2013, 2015, 2163, 2058, 2057, 2139, 2089, 2042, 2087, 2140, 2072, 2011, 2006, 2069, 2166, 2016, 2050, 2134, 2119, 2072, 2059, 2054, 2135, 2054, 2024, 2131, 2074, 2089, 2121, 2094, 2031, 2089, 2122, 2118, 2072, 2133, 2062, 2045, 2034, 2136, 2010, 2026, 2015, 2089, 1968, 2011, 1995, 2027, 2022, 2003, 1987, 2072, 2032, 2009, 2000, 1999, 2016, 1997, 2011, 2008, 2014, 2020, 2005, 2025, 2073, 2027, 2072, 2006, 1993, 1984, 2024, 2011, 2023, 2049, 2059, 2013, 2047, 2033, 2042, 2032, 2081, 2093, 2006, 2040, 2078, 2060, 2110, 2133, 2008, 1993, 2039, 2078, 2047, 1999, 2007, 2123, 2080, 2112, 2071, 2055, 2059, 2129, 2104, 2057, 2032, 2129, 2089, 2024, 2047, 2134, 2215, 2122, 2074, 2029, 2010, 2142, 2161, 2055, 2055, 2082, 2105, 2057, 2047, 2002, 2085, 2028, 2117, 2138, 2102, 2053, 2082, 2115, 2105, 2030, 1955, 2047, 2092, 2050, 1975, 2011, 2077, 2073, 2044, 2064, 2062, 2103, 2204, 2146, 2015, 2093, 2097, 2186, 2176, 1979, 2021, 2128, 2173, 2048, 2056, 2118, 2062, 2172, 2167, 2073, 2131, 2164, 2119, 2177, 2110, 2007, 2123, 2132, 2108, 2088, 2127, 2126, 2201, 2077, 2111, 2133, 2106, 2138, 2160, 2073, 2112, 2189, 2208, 2129, 2108, 2153, 2106, 2098, 2068, 2024, 2034, 2163, 2171, 2225, 2137, 2147, 2132, 2154, 2189, 2081, 2080, 2159, 2186, 2124, 2057, 2155, 2144, 2155, 2183, 2146, 2115, 2189, 2217, 2158, 2140, 2076, 2122, 2148, 2079, 2049, 2079, 2103, 2100, 2142, 2103, 2126, 2132, 2200, 2194, 2115, 2130, 2191, 2187, 2121, 2096, 2102, 2109, 2149, 2125, 2070, 2112, 2154, 2176, 2122, 2134, 2164, 2150, 2220, 2150, 2065, 2103, 2145, 2203, 2191, 2105, 2153, 2180, 2142, 2178, 2162, 2189, 2195, 2140, 2183, 2102, 2158, 2176, 2140, 2133, 2149, 2166, 2203, 2169, 2164, 2157, 2190, 2161, 2134, 2098, 2050, 2138, 2172, 2134, 2117],
      "WindowCenter": [421.0, 420.0, 419.0, 419.0, 419.0, 418.0, 417.0, 418.0, 418.0, 418.0, 418.0, 419.0, 418.0, 419.0, 420.0, 422.0, 421.0, 421.0, 420.0, 420.0, 421.0, 421.0, 421.0, 421.0, 420.0, 420.0, 419.0, 419.0, 418.0, 418.0, 418.0, 417.0, 416.0, 416.0, 416.0, 416.0, 416.0, 417.0, 418.0, 418.0, 418.0, 419.0, 419.0, 419.0, 420.0, 420.0, 421.0, 421.0, 421.0, 420.0, 419.0, 418.0, 418.0, 418.0, 418.0, 418.0, 419.0, 419.0, 419.0, 419.0, 420.0, 420.0, 419.0, 418.0, 418.0, 419.0, 419.0, 420.0, 420.0, 420.0, 420.0, 420.0, 419.0, 419.0, 420.0, 420.0, 420.0, 421.0, 421.0, 420.0, 419.0, 419.0, 418.0, 419.0, 418.0, 418.0, 417.0, 418.0, 419.0, 419.0, 419.0, 418.0, 416.0, 418.0, 418.0, 418.0, 418.0, 418.0, 417.0, 417.0, 418.0, 418.0, 418.0, 418.0, 419.0, 420.0, 419.0, 419.0, 418.0, 417.0, 416.0, 417.0, 417.0, 418.0, 418.0, 419.0, 417.0, 417.0, 417.0, 417.0, 417.0, 417.0, 417.0, 417.0, 417.0, 419.0, 419.0, 420.0, 420.0, 419.0, 417.0, 417.0, 416.0, 417.0, 417.0, 416.0, 417.0, 418.0, 418.0, 420.0, 419.0, 420.0, 419.0, 419.0, 419.0, 418.0, 418.0, 420.0, 420.0, 419.0, 420.0, 420.0, 420.0, 418.0, 417.0, 417.0, 417.0, 418.0, 418.0, 417.0, 417.0, 417.0, 416.0, 417.0, 417.0, 417.0, 417.0, 417.0, 418.0, 419.0, 419.0, 418.0, 418.0, 418.0, 417.0, 417.0, 416.0, 417.0, 417.0, 417.0, 416.0, 417.0, 418.0, 418.0, 417.0, 418.0, 418.0, 419.0, 420.0, 419.0, 418.0, 418.0, 419.0, 420.0, 419.0, 417.0, 417.0, 417.0, 418.0, 417.0, 419.0, 419.0, 420.0, 420.0, 421.0, 420.0, 420.0, 420.0, 420.0, 421.0, 421.0, 419.0, 420.0, 420.0, 419.0, 419.0, 420.0, 421.0, 421.0, 420.0, 420.0, 419.0, 419.0, 420.0, 420.0, 420.0, 421.0, 420.0, 420.0, 419.0, 418.0, 418.0, 418.0, 418.0, 419.0, 419.0, 420.0, 421.0, 421.0, 422.0, 422.0, 422.0, 421.0, 421.0, 420.0, 419.0, 418.0, 419.0, 420.0, 420.0, 420.0, 421.0, 421.0, 421.0, 421.0, 421.0, 421.0, 421.0, 422.0, 421.0, 421.0, 419.0, 419.0, 419.0, 418.0, 418.0, 419.0, 419.0, 420.0, 421.0, 421.0, 421.0, 421.0, 421.0, 421.0, 420.0, 419.0, 420.0, 420.0, 420.0, 420.0, 420.0, 420.0, 420.0, 420.0, 420.0, 420.0, 421.0, 422.0, 421.0, 421.0, 420.0, 419.0, 419.0, 419.0, 420.0, 420.0, 421.0, 421.0, 420.0, 419.0, 419.0, 420.0, 420.0, 421.0, 421.0, 421.0, 420.0, 420.0, 421.0, 421.0, 420.0, 420.0, 420.0, 420.0, 420.0, 420.0, 421.0, 421.0, 421.0, 421.0, 421.0, 420.0, 420.0, 420.0, 420.0, 420.0, 421.0, 420.0, 420.0],
