{
  "AcquisitionMatrixPE": 104,
  "AcquisitionNumber": 1,
  "AcquisitionTime": "09:39:8.832500",
  "BandwidthPerPixelPhaseEncode": 43.054,
  "BaseResolution": 104,
  "CoilString": "C:E1_2",
  "ConversionSoftware": "dcm2niix",
  "ConversionSoftwareVersion": "v1.0.20191031",
  "DerivedVendorReportedEchoSpacing": 0.000669999,
  "DeviceSerialNumber": "18932",
  "DwellTime": 2.8e-06,
  "EchoTime": 0.02,
  "EffectiveEchoSpacing": 0.000223333,
  "FlipAngle": 30,
  "ImageComments": "Unaliased_MB2_PE2",
  "ImageOrientationPatientDICOM": [1, 0, 0, 0, 0.992546, -0.121869],
  "ImageType": [
    "ORIGINAL",
    "PRIMARY",
    "M",
    "MB",
    "ND",
    "MOSAIC"
],
  "ImagingFrequency": 297.23,
  "InPlanePhaseEncodingDirectionDICOM": "COL",
  "InstitutionAddress": "Richmond_Street_North_1151_London_409EF2_Ontario_CA_N6A_5B7",
  "InstitutionName": "Robarts_Reserch_Institute",
  "InstitutionalDepartmentName": "Department",
  "MRAcquisitionType": "2D",
  "MagneticFieldStrength": 6.98,
  "Manufacturer": "Siemens",
  "ManufacturersModelName": "Investigational_Device_7T",
  "Modality": "MR",
  "MultibandAccelerationFactor": 2,
  "ParallelReductionFactorInPlane": 3,
  "PartialFourier": 0.875,
  "PatientPosition": "HFS",
  "PercentPhaseFOV": 100,
  "PhaseEncodingDirection": "j-",
  "PhaseEncodingSteps": 91,
  "PhaseResolution": 1,
  "PixelBandwidth": 1717,
  "ProcedureStepDescription": "Diedrichsen_SeqRep4",
  "ProtocolName": "mbep2d_bold_mb2_p3_AP_2iso",
  "PulseSequenceDetails": "%CustomerSeq%_cmrr_mbep2d_bold",
  "ReceiveCoilName": "CFMM_8Tx32Rx",
  "ReconMatrixPE": 104,
  "RefLinesPE": 36,
  "RepetitionTime": 1,
  "ScanOptions": "PFP_FS",
  "ScanningSequence": "EP",
  "SequenceName": "epfid2d1_104",
  "SequenceVariant": "SK_SS",
  "SeriesDescription": "mbep2d_bold_mb2_p3_AP_2iso",
  "SeriesNumber": 20,
  "ShimSetting": [-39, 2025, 376, 241, 228, 77, -97, -67],
  "SliceThickness": 2,
  "SliceTiming": [0, 0.2275, 0.455, 0.685, 0.9125, 0.1375, 0.365, 0.5925, 0.82, 0.045, 0.2725, 0.5025, 0.73, 0.9575, 0.1825, 0.41, 0.6375, 0.8675, 0.09, 0.32, 0.5475, 0.775, 0, 0.2275, 0.455, 0.685, 0.9125, 0.1375, 0.365, 0.5925, 0.82, 0.045, 0.2725, 0.5025, 0.73, 0.9575, 0.1825, 0.41, 0.6375, 0.8675, 0.09, 0.32, 0.5475, 0.775],
  "SoftwareVersions": "syngo_MR_B17",
  "SpacingBetweenSlices": 2,
  "StationName": "MASTER",
  "TaskName": "dsp",
  "TotalReadoutTime": 0.0230033,
  "TxRefAmp": 120,
  "dcmmeta_affine": [
    [-2.0, 0.0, 0.0, 108.35835266113281],
    [0.0, 1.985092282295227, -0.24373869597911835, -107.62377166748047],
    [0.0, 0.24373868107795715, 1.985092282295227, -34.82061767578125],
    [0.0, 0.0, 0.0, 1.0]
],
  "dcmmeta_reorient_transform": [
    [0.0, -1.0, 0.0, 103.0],
    [1.0, 0.0, 0.0, 0.0],
    [0.0, 0.0, 1.0, 0.0],
    [0.0, 0.0, 0.0, 1.0]
],
  "dcmmeta_shape": [104, 104, 44, 330],
  "dcmmeta_slice_dim": 2,
  "dcmmeta_version": 0.6,
  "global": {
    "const": {
      "AcquisitionMatrix": [104, 0, 0, 104],
      "AngioFlag": "N",
      "BitsAllocated": 16,
      "BitsStored": 12,
      "Columns": 728,
      "EchoNumbers": 1,
      "EchoTime": 20.0,
      "EchoTrainLength": 1,
      "FlipAngle": 30.0,
      "HighBit": 11,
      "ImageOrientationPatient": [1.0, 0.0, 0.0, 0.0, 0.99254615167353, -0.1218693431428],
      "ImagePositionPatient": [-732.35835361481, -716.18953612814, 66.330935824086],
      "ImageType": [
        "ORIGINAL",
        "PRIMARY",
        "M",
        "MB",
        "ND",
        "MOSAIC"
],
      "ImagedNucleus": "1H",
      "ImagingFrequency": 297.23016,
      "InPlanePhaseEncodingDirection": "COL",
      "MRAcquisitionType": "2D",
      "MagneticFieldStrength": 6.98,
      "Manufacturer": "SIEMENS",
      "ManufacturerModelName": "Investigational_Device_7T",
      "Modality": "MR",
      "NumberOfAverages": 1.0,
      "NumberOfPhaseEncodingSteps": 91,
      "PercentPhaseFieldOfView": 100.0,
      "PercentSampling": 100.0,
      "PerformedProcedureStepStartTime": "085638.812000",
      "PhotometricInterpretation": "MONOCHROME2",
      "PixelBandwidth": 1717.0,
      "PixelRepresentation": 0,
      "PixelSpacing": [2.0, 2.0],
      "ProtocolName": "mbep2d_bold_mb2_p3_AP 2iso",
      "RepetitionTime": 1000.0,
      "Rows": 728,
      "SAR": 0.0,
      "SamplesPerPixel": 1,
      "ScanOptions": [
        "PFP",
        "FS"
],
      "ScanningSequence": "EP",
      "SequenceName": "epfid2d1_104",
      "SequenceVariant": [
        "SK",
        "SS"
],
      "SeriesDescription": "mbep2d_bold_mb2_p3_AP 2iso",
      "SeriesNumber": 20,
      "SeriesTime": "093946.296000",
      "SliceLocation": -21.445033244596,
      "SliceThickness": 2.0,
      "SmallestImagePixelValue": 0,
      "SoftwareVersions": "syngo MR B17",
      "SpacingBetweenSlices": 2.0000000380287,
      "SpecificCharacterSet": "ISO_IR 100",
      "StudyID": "1",
      "StudyTime": "085638.765000",
      "TransmitCoilName": "CFMM_8Tx32Rx",
      "VariableFlipAngleFlag": "N",
      "WindowCenterWidthExplanation": "Algo1",
      "dBdt": 0.0},
    "slices": {}
  },
  "time": {
    "samples": {
      "AcquisitionNumber": [1, 2, 3, 4, 5, 6, 7, 8, 9, 10, 11, 12, 13, 14, 15, 16, 17, 18, 19, 20, 21, 22, 23, 24, 25, 26, 27, 28, 29, 30, 31, 32, 33, 34, 35, 36, 37, 38, 39, 40, 41, 42, 43, 44, 45, 46, 47, 48, 49, 50, 51, 52, 53, 54, 55, 56, 57, 58, 59, 60, 61, 62, 63, 64, 65, 66, 67, 68, 69, 70, 71, 72, 73, 74, 75, 76, 77, 78, 79, 80, 81, 82, 83, 84, 85, 86, 87, 88, 89, 90, 91, 92, 93, 94, 95, 96, 97, 98, 99, 100, 101, 102, 103, 104, 105, 106, 107, 108, 109, 110, 111, 112, 113, 114, 115, 116, 117, 118, 119, 120, 121, 122, 123, 124, 125, 126, 127, 128, 129, 130, 131, 132, 133, 134, 135, 136, 137, 138, 139, 140, 141, 142, 143, 144, 145, 146, 147, 148, 149, 150, 151, 152, 153, 154, 155, 156, 157, 158, 159, 160, 161, 162, 163, 164, 165, 166, 167, 168, 169, 170, 171, 172, 173, 174, 175, 176, 177, 178, 179, 180, 181, 182, 183, 184, 185, 186, 187, 188, 189, 190, 191, 192, 193, 194, 195, 196, 197, 198, 199, 200, 201, 202, 203, 204, 205, 206, 207, 208, 209, 210, 211, 212, 213, 214, 215, 216, 217, 218, 219, 220, 221, 222, 223, 224, 225, 226, 227, 228, 229, 230, 231, 232, 233, 234, 235, 236, 237, 238, 239, 240, 241, 242, 243, 244, 245, 246, 247, 248, 249, 250, 251, 252, 253, 254, 255, 256, 257, 258, 259, 260, 261, 262, 263, 264, 265, 266, 267, 268, 269, 270, 271, 272, 273, 274, 275, 276, 277, 278, 279, 280, 281, 282, 283, 284, 285, 286, 287, 288, 289, 290, 291, 292, 293, 294, 295, 296, 297, 298, 299, 300, 301, 302, 303, 304, 305, 306, 307, 308, 309, 310, 311, 312, 313, 314, 315, 316, 317, 318, 319, 320, 321, 322, 323, 324, 325, 326, 327, 328, 329, 330],
      "AcquisitionTime": ["093908.832500", "093909.837500", "093910.840000", "093911.845000", "093912.847500", "093913.852500", "093914.857500", "093915.860000", "093916.865000", "093917.867500", "093918.872500", "093919.877500", "093920.880000", "093921.885000", "093922.887500", "093923.892500", "093924.897500", "093925.900000", "093926.905000", "093927.910000", "093928.912500", "093929.917500", "093930.920000", "093931.925000", "093932.930000", "093933.932500", "093934.937500", "093935.940000", "093936.945000", "093937.950000", "093938.952500", "093939.957500", "093940.960000", "093941.965000", "093942.970000", "093943.972500", "093944.977500", "093945.980000", "093946.985000", "093947.990000", "093948.992500", "093949.997500", "093951.000000", "093952.005000", "093953.010000", "093954.012500", "093955.017500", "093956.020000", "093957.025000", "093958.030000", "093959.032500", "094000.037500", "094001.042500", "094002.045000", "094003.050000", "094004.052500", "094005.057500", "094006.062500", "094007.065000", "094008.070000", "094009.072500", "094010.077500", "094011.082500", "094012.085000", "094013.090000", "094014.092500", "094015.097500", "094016.102500", "094017.105000", "094018.110000", "094019.112500", "094020.117500", "094021.122500", "094022.125000", "094023.130000", "094024.132500", "094025.137500", "094026.142500", "094027.145000", "094028.150000", "094029.152500", "094030.157500", "094031.162500", "094032.165000", "094033.170000", "094034.175000", "094035.177500", "094036.182500", "094037.185000", "094038.190000", "094039.195000", "094040.197500", "094041.202500", "094042.205000", "094043.210000", "094044.215000", "094045.217500", "094046.222500", "094047.225000", "094048.230000", "094049.235000", "094050.237500", "094051.242500", "094052.245000", "094053.250000", "094054.255000", "094055.257500", "094056.262500", "094057.265000", "094058.270000", "094059.275000", "094100.277500", "094101.282500", "094102.287500", "094103.290000", "094104.295000", "094105.297500", "094106.302500", "094107.307500", "094108.310000", "094109.315000", "094110.317500", "094111.322500", "094112.327500", "094113.330000", "094114.335000", "094115.337500", "094116.342500", "094117.347500", "094118.350000", "094119.355000", "094120.357500", "094121.362500", "094122.367500", "094123.370000", "094124.375000", "094125.377500", "094126.382500", "094127.387500", "094128.390000", "094129.395000", "094130.397500", "094131.402500", "094132.407500", "094133.410000", "094134.415000", "094135.420000", "094136.422500", "094137.427500", "094138.430000", "094139.435000", "094140.440000", "094141.442500", "094142.447500", "094143.450000", "094144.455000", "094145.460000", "094146.462500", "094147.467500", "094148.470000", "094149.475000", "094150.480000", "094151.482500", "094152.487500", "094153.490000", "094154.495000", "094155.500000", "094156.502500", "094157.507500", "094158.510000", "094159.515000", "094200.520000", "094201.522500", "094202.527500", "094203.530000", "094204.535000", "094205.540000", "094206.542500", "094207.547500", "094208.552500", "094209.555000", "094210.560000", "094211.562500", "094212.567500", "094213.572500", "094214.575000", "094215.580000", "094216.582500", "094217.587500", "094218.592500", "094219.595000", "094220.600000", "094221.602500", "094222.607500", "094223.612500", "094224.615000", "094225.620000", "094226.622500", "094227.627500", "094228.632500", "094229.635000", "094230.640000", "094231.642500", "094232.647500", "094233.652500", "094234.655000", "094235.660000", "094236.665000", "094237.667500", "094238.672500", "094239.675000", "094240.680000", "094241.685000", "094242.687500", "094243.692500", "094244.695000", "094245.700000", "094246.705000", "094247.707500", "094248.712500", "094249.715000", "094250.720000", "094251.725000", "094252.727500", "094253.732500", "094254.735000", "094255.740000", "094256.745000", "094257.747500", "094258.752500", "094259.755000", "094300.760000", "094301.765000", "094302.767500", "094303.772500", "094304.775000", "094305.780000", "094306.785000", "094307.787500", "094308.792500", "094309.797500", "094310.800000", "094311.805000", "094312.807500", "094313.812500", "094314.817500", "094315.820000", "094316.825000", "094317.827500", "094318.832500", "094319.837500", "094320.840000", "094321.845000", "094322.847500", "094323.852500", "094324.857500", "094325.860000", "094326.865000", "094327.867500", "094328.872500", "094329.877500", "094330.880000", "094331.885000", "094332.887500", "094333.892500", "094334.897500", "094335.900000", "094336.905000", "094337.910000", "094338.912500", "094339.917500", "094340.920000", "094341.925000", "094342.930000", "094343.932500", "094344.937500", "094345.940000", "094346.945000", "094347.950000", "094348.952500", "094349.957500", "094350.960000", "094351.965000", "094352.970000", "094353.972500", "094354.977500", "094355.980000", "094356.985000", "094357.990000", "094358.992500", "094359.997500", "094401.000000", "094402.005000", "094403.010000", "094404.012500", "094405.017500", "094406.020000", "094407.025000", "094408.030000", "094409.032500", "094410.037500", "094411.042500", "094412.045000", "094413.050000", "094414.052500", "094415.057500", "094416.062500", "094417.065000", "094418.070000", "094419.072500", "094420.077500", "094421.082500", "094422.085000", "094423.090000", "094424.092500", "094425.097500", "094426.102500", "094427.105000", "094428.110000", "094429.112500", "094430.117500", "094431.122500", "094432.125000", "094433.130000", "094434.132500", "094435.137500", "094436.142500", "094437.145000", "094438.150000", "094439.152500"],
      "ContentTime": ["093946.296000", "093946.296000", "093946.296000", "093946.296000", "093946.312000", "093946.312000", "093946.312000", "093946.312000", "093946.312000", "093946.312000", "093946.312000", "093946.312000", "093946.328000", "093946.328000", "093946.328000", "093946.328000", "093946.328000", "093946.328000", "093946.328000", "093946.343000", "093946.343000", "093946.343000", "093946.343000", "093946.343000", "093946.343000", "093946.343000", "093946.359000", "093946.359000", "093946.359000", "093946.359000", "093946.359000", "093946.359000", "093946.375000", "093946.375000", "093946.375000", "094006.250000", "094006.250000", "094006.250000", "094006.250000", "094006.250000", "094006.250000", "094006.265000", "094006.265000", "094006.265000", "094006.265000", "094006.265000", "094006.265000", "094006.281000", "094006.281000", "094006.281000", "094006.281000", "094006.281000", "094006.281000", "094006.281000", "094006.296000", "094026.250000", "094026.250000", "094026.250000", "094026.250000", "094026.250000", "094026.265000", "094026.265000", "094026.265000", "094026.265000", "094026.265000", "094026.265000", "094026.281000", "094026.281000", "094026.281000", "094026.281000", "094026.281000", "094026.281000", "094026.296000", "094026.296000", "094026.296000", "094046.250000", "094046.250000", "094046.250000", "094046.250000", "094046.250000", "094046.250000", "094046.265000", "094046.265000", "094046.265000", "094046.265000", "094046.265000", "094046.265000", "094046.265000", "094046.281000", "094046.281000", "094046.281000", "094046.281000", "094046.281000", "094046.281000", "094046.281000", "094106.250000", "094106.281000", "094106.281000", "094106.281000", "094106.281000", "094106.281000", "094106.281000", "094106.281000", "094106.296000", "094106.296000", "094106.296000", "094106.296000", "094106.296000", "094106.296000", "094106.312000", "094106.312000", "094106.312000", "094106.312000", "094106.312000", "094106.312000", "094126.250000", "094126.250000", "094126.250000", "094126.250000", "094126.250000", "094126.250000", "094126.265000", "094126.265000", "094126.265000", "094126.265000", "094126.265000", "094126.265000", "094126.265000", "094126.281000", "094126.281000", "094126.281000", "094126.281000", "094126.296000", "094126.296000", "094126.296000", "094146.250000", "094146.250000", "094146.250000", "094146.250000", "094146.265000", "094146.265000", "094146.265000", "094146.265000", "094146.265000", "094146.265000", "094146.281000", "094146.281000", "094146.281000", "094146.281000", "094146.281000", "094146.281000", "094146.281000", "094146.296000", "094146.296000", "094146.296000", "094206.250000", "094206.250000", "094206.250000", "094206.250000", "094206.250000", "094206.250000", "094206.265000", "094206.265000", "094206.265000", "094206.265000", "094206.265000", "094206.265000", "094206.265000", "094206.281000", "094206.281000", "094206.281000", "094206.281000", "094206.281000", "094206.281000", "094206.281000", "094226.250000", "094226.281000", "094226.281000", "094226.281000", "094226.281000", "094226.281000", "094226.281000", "094226.281000", "094226.296000", "094226.296000", "094226.296000", "094226.312000", "094226.312000", "094226.312000", "094226.312000", "094226.328000", "094226.328000", "094226.328000", "094226.328000", "094226.328000", "094246.250000", "094246.250000", "094246.265000", "094246.265000", "094246.265000", "094246.265000", "094246.265000", "094246.265000", "094246.281000", "094246.281000", "094246.281000", "094246.281000", "094246.281000", "094246.281000", "094246.296000", "094246.296000", "094246.296000", "094246.296000", "094246.296000", "094246.296000", "094306.250000", "094306.250000", "094306.250000", "094306.265000", "094306.265000", "094306.265000", "094306.265000", "094306.265000", "094306.265000", "094306.265000", "094306.265000", "094306.281000", "094306.281000", "094306.281000", "094306.281000", "094306.281000", "094306.281000", "094306.281000", "094306.296000", "094306.296000", "094326.250000", "094326.250000", "094326.250000", "094326.265000", "094326.265000", "094326.265000", "094326.265000", "094326.281000", "094326.281000", "094326.281000", "094326.281000", "094326.281000", "094326.281000", "094326.296000", "094326.296000", "094326.296000", "094326.296000", "094326.296000", "094326.296000", "094326.296000", "094346.250000", "094346.250000", "094346.250000", "094346.250000", "094346.265000", "094346.265000", "094346.265000", "094346.265000", "094346.265000", "094346.265000", "094346.265000", "094346.281000", "094346.281000", "094346.281000", "094346.281000", "094346.281000", "094346.281000", "094346.281000", "094346.296000", "094346.296000", "094406.250000", "094406.250000", "094406.250000", "094406.250000", "094406.250000", "094406.250000", "094406.265000", "094406.265000", "094406.265000", "094406.265000", "094406.265000", "094406.265000", "094406.265000", "094406.281000", "094406.281000", "094406.281000", "094406.281000", "094406.281000", "094406.281000", "094406.281000", "094426.250000", "094426.250000", "094426.250000", "094426.250000", "094426.250000", "094426.250000", "094426.265000", "094426.265000", "094426.265000", "094426.265000", "094426.265000", "094426.265000", "094426.265000", "094426.281000", "094426.281000", "094426.281000", "094426.281000", "094426.281000", "094426.281000", "094426.296000", "094445.812000", "094445.812000", "094445.812000", "094445.812000", "094445.812000", "094445.828000", "094445.828000", "094445.828000", "094445.828000", "094445.828000", "094445.828000", "094445.843000", "094445.843000", "094445.843000", "094445.843000"],
      "InstanceCreationTime": ["093946.296000", "093946.296000", "093946.296000", "093946.296000", "093946.312000", "093946.312000", "093946.312000", "093946.312000", "093946.312000", "093946.312000", "093946.312000", "093946.312000", "093946.328000", "093946.328000", "093946.328000", "093946.328000", "093946.328000", "093946.328000", "093946.328000", "093946.343000", "093946.343000", "093946.343000", "093946.343000", "093946.343000", "093946.343000", "093946.343000", "093946.359000", "093946.359000", "093946.359000", "093946.359000", "093946.359000", "093946.359000", "093946.375000", "093946.375000", "093946.375000", "094006.250000", "094006.250000", "094006.250000", "094006.250000", "094006.250000", "094006.250000", "094006.265000", "094006.265000", "094006.265000", "094006.265000", "094006.265000", "094006.265000", "094006.281000", "094006.281000", "094006.281000", "094006.281000", "094006.281000", "094006.281000", "094006.281000", "094006.296000", "094026.250000", "094026.250000", "094026.250000", "094026.250000", "094026.250000", "094026.265000", "094026.265000", "094026.265000", "094026.265000", "094026.265000", "094026.265000", "094026.281000", "094026.281000", "094026.281000", "094026.281000", "094026.281000", "094026.281000", "094026.296000", "094026.296000", "094026.296000", "094046.250000", "094046.250000", "094046.250000", "094046.250000", "094046.250000", "094046.250000", "094046.265000", "094046.265000", "094046.265000", "094046.265000", "094046.265000", "094046.265000", "094046.265000", "094046.281000", "094046.281000", "094046.281000", "094046.281000", "094046.281000", "094046.281000", "094046.281000", "094106.250000", "094106.281000", "094106.281000", "094106.281000", "094106.281000", "094106.281000", "094106.281000", "094106.281000", "094106.296000", "094106.296000", "094106.296000", "094106.296000", "094106.296000", "094106.296000", "094106.312000", "094106.312000", "094106.312000", "094106.312000", "094106.312000", "094106.312000", "094126.250000", "094126.250000", "094126.250000", "094126.250000", "094126.250000", "094126.250000", "094126.265000", "094126.265000", "094126.265000", "094126.265000", "094126.265000", "094126.265000", "094126.265000", "094126.281000", "094126.281000", "094126.281000", "094126.281000", "094126.296000", "094126.296000", "094126.296000", "094146.250000", "094146.250000", "094146.250000", "094146.250000", "094146.265000", "094146.265000", "094146.265000", "094146.265000", "094146.265000", "094146.265000", "094146.281000", "094146.281000", "094146.281000", "094146.281000", "094146.281000", "094146.281000", "094146.281000", "094146.296000", "094146.296000", "094146.296000", "094206.250000", "094206.250000", "094206.250000", "094206.250000", "094206.250000", "094206.250000", "094206.265000", "094206.265000", "094206.265000", "094206.265000", "094206.265000", "094206.265000", "094206.265000", "094206.281000", "094206.281000", "094206.281000", "094206.281000", "094206.281000", "094206.281000", "094206.281000", "094226.250000", "094226.281000", "094226.281000", "094226.281000", "094226.281000", "094226.281000", "094226.281000", "094226.281000", "094226.296000", "094226.296000", "094226.296000", "094226.312000", "094226.312000", "094226.312000", "094226.312000", "094226.328000", "094226.328000", "094226.328000", "094226.328000", "094226.328000", "094246.250000", "094246.250000", "094246.265000", "094246.265000", "094246.265000", "094246.265000", "094246.265000", "094246.265000", "094246.281000", "094246.281000", "094246.281000", "094246.281000", "094246.281000", "094246.281000", "094246.296000", "094246.296000", "094246.296000", "094246.296000", "094246.296000", "094246.296000", "094306.250000", "094306.250000", "094306.250000", "094306.265000", "094306.265000", "094306.265000", "094306.265000", "094306.265000", "094306.265000", "094306.265000", "094306.265000", "094306.281000", "094306.281000", "094306.281000", "094306.281000", "094306.281000", "094306.281000", "094306.281000", "094306.296000", "094306.296000", "094326.250000", "094326.250000", "094326.250000", "094326.265000", "094326.265000", "094326.265000", "094326.265000", "094326.281000", "094326.281000", "094326.281000", "094326.281000", "094326.281000", "094326.281000", "094326.296000", "094326.296000", "094326.296000", "094326.296000", "094326.296000", "094326.296000", "094326.296000", "094346.250000", "094346.250000", "094346.250000", "094346.250000", "094346.265000", "094346.265000", "094346.265000", "094346.265000", "094346.265000", "094346.265000", "094346.265000", "094346.281000", "094346.281000", "094346.281000", "094346.281000", "094346.281000", "094346.281000", "094346.281000", "094346.296000", "094346.296000", "094406.250000", "094406.250000", "094406.250000", "094406.250000", "094406.250000", "094406.250000", "094406.265000", "094406.265000", "094406.265000", "094406.265000", "094406.265000", "094406.265000", "094406.265000", "094406.281000", "094406.281000", "094406.281000", "094406.281000", "094406.281000", "094406.281000", "094406.281000", "094426.250000", "094426.250000", "094426.250000", "094426.250000", "094426.250000", "094426.250000", "094426.265000", "094426.265000", "094426.265000", "094426.265000", "094426.265000", "094426.265000", "094426.265000", "094426.281000", "094426.281000", "094426.281000", "094426.281000", "094426.281000", "094426.281000", "094426.296000", "094445.812000", "094445.812000", "094445.812000", "094445.812000", "094445.812000", "094445.828000", "094445.828000", "094445.828000", "094445.828000", "094445.828000", "094445.828000", "094445.843000", "094445.843000", "094445.843000", "094445.843000"],
      "InstanceNumber": [1, 2, 3, 4, 5, 6, 7, 8, 9, 10, 11, 12, 13, 14, 15, 16, 17, 18, 19, 20, 21, 22, 23, 24, 25, 26, 27, 28, 29, 30, 31, 32, 33, 34, 35, 36, 37, 38, 39, 40, 41, 42, 43, 44, 45, 46, 47, 48, 49, 50, 51, 52, 53, 54, 55, 56, 57, 58, 59, 60, 61, 62, 63, 64, 65, 66, 67, 68, 69, 70, 71, 72, 73, 74, 75, 76, 77, 78, 79, 80, 81, 82, 83, 84, 85, 86, 87, 88, 89, 90, 91, 92, 93, 94, 95, 96, 97, 98, 99, 100, 101, 102, 103, 104, 105, 106, 107, 108, 109, 110, 111, 112, 113, 114, 115, 116, 117, 118, 119, 120, 121, 122, 123, 124, 125, 126, 127, 128, 129, 130, 131, 132, 133, 134, 135, 136, 137, 138, 139, 140, 141, 142, 143, 144, 145, 146, 147, 148, 149, 150, 151, 152, 153, 154, 155, 156, 157, 158, 159, 160, 161, 162, 163, 164, 165, 166, 167, 168, 169, 170, 171, 172, 173, 174, 175, 176, 177, 178, 179, 180, 181, 182, 183, 184, 185, 186, 187, 188, 189, 190, 191, 192, 193, 194, 195, 196, 197, 198, 199, 200, 201, 202, 203, 204, 205, 206, 207, 208, 209, 210, 211, 212, 213, 214, 215, 216, 217, 218, 219, 220, 221, 222, 223, 224, 225, 226, 227, 228, 229, 230, 231, 232, 233, 234, 235, 236, 237, 238, 239, 240, 241, 242, 243, 244, 245, 246, 247, 248, 249, 250, 251, 252, 253, 254, 255, 256, 257, 258, 259, 260, 261, 262, 263, 264, 265, 266, 267, 268, 269, 270, 271, 272, 273, 274, 275, 276, 277, 278, 279, 280, 281, 282, 283, 284, 285, 286, 287, 288, 289, 290, 291, 292, 293, 294, 295, 296, 297, 298, 299, 300, 301, 302, 303, 304, 305, 306, 307, 308, 309, 310, 311, 312, 313, 314, 315, 316, 317, 318, 319, 320, 321, 322, 323, 324, 325, 326, 327, 328, 329, 330],
      "LargestImagePixelValue": [2130, 2059, 2079, 2104, 2040, 2082, 2075, 2053, 2053, 2037, 2024, 2053, 2018, 2096, 2098, 2062, 2093, 2143, 2085, 2099, 2080, 2104, 2088, 2069, 2094, 2083, 2066, 2087, 2083, 2084, 2074, 2070, 2084, 2093, 2078, 2078, 2039, 2090, 2102, 2101, 2083, 2091, 2064, 2023, 2095, 2066, 2046, 2047, 2056, 2083, 2086, 2096, 2067, 2079, 2057, 2085, 2064, 2062, 2063, 2073, 2118, 2112, 2097, 2089, 2083, 2092, 2069, 2138, 2094, 2082, 2116, 2090, 2115, 2058, 2072, 2101, 2084, 2070, 2093, 2047, 2065, 2087, 2039, 2097, 2098, 2107, 2096, 2143, 2074, 2079, 2112, 2089, 2073, 2091, 2105, 2146, 2073, 2088, 2094, 2120, 2086, 2096, 2070, 2050, 2065, 2077, 2073, 2108, 2066, 2115, 2101, 2083, 2062, 2070, 2061, 2080, 2127, 2129, 2079, 2110, 2110, 2085, 2070, 2064, 2047, 2087, 2050, 2104, 2069, 2111, 2111, 2096, 2117, 2096, 2087, 2134, 2096, 2067, 2089, 2082, 2057, 2124, 2071, 2089, 2079, 2087, 2099, 2118, 2115, 2129, 2102, 2122, 2127, 2097, 2150, 2100, 2107, 2096, 2130, 2125, 2097, 2132, 2109, 2121, 2118, 2097, 2075, 2083, 2077, 2110, 2106, 2160, 2151, 2125, 2128, 2090, 2104, 2110, 2116, 2099, 2100, 2127, 2121, 2067, 2127, 2107, 2110, 2139, 2089, 2102, 2140, 2129, 2100, 2061, 2079, 2069, 2063, 2048, 2075, 2087, 2145, 2093, 2094, 2125, 2115, 2084, 2098, 2086, 2116, 2119, 2148, 2125, 2087, 2137, 2146, 2117, 2148, 2108, 2084, 2106, 2125, 2140, 2104, 2095, 2127, 2115, 2107, 2121, 2096, 2120, 2136, 2138, 2109, 2147, 2106, 2125, 2088, 2087, 2108, 2110, 2072, 2121, 2122, 2133, 2108, 2159, 2126, 2090, 2139, 2122, 2160, 2106, 2102, 2082, 2067, 2104, 2095, 2115, 2111, 2105, 2122, 2113, 2102, 2081, 2094, 2118, 2099, 2095, 2087, 2109, 2101, 2091, 2143, 2096, 2153, 2159, 2150, 2145, 2123, 2089, 2089, 2085, 2068, 2054, 2087, 2101, 2102, 2102, 2099, 2112, 2116, 2096, 2078, 2048, 2112, 2081, 2114, 2112, 2102, 2087, 2100, 2111, 2133, 2088, 2110, 2136, 2118, 2120, 2100, 2156, 2096, 2120, 2083, 2104, 2103, 2087, 2104, 2144, 2106, 2112, 2124, 2138, 2116, 2115, 2123, 2105, 2116, 2117, 2126, 2121],
      "WindowCenter": [413.0, 413.0, 413.0, 414.0, 413.0, 413.0, 413.0, 413.0, 412.0, 413.0, 413.0, 414.0, 414.0, 415.0, 415.0, 415.0, 415.0, 416.0, 415.0, 414.0, 414.0, 415.0, 414.0, 415.0, 415.0, 415.0, 413.0, 413.0, 414.0, 414.0, 414.0, 414.0, 415.0, 415.0, 414.0, 414.0, 414.0, 414.0, 415.0, 415.0, 414.0, 415.0, 414.0, 413.0, 413.0, 413.0, 414.0, 413.0, 414.0, 414.0, 414.0, 413.0, 413.0, 413.0, 413.0, 414.0, 414.0, 414.0, 415.0, 415.0, 416.0, 415.0, 415.0, 415.0, 415.0, 415.0, 414.0, 414.0, 414.0, 414.0, 414.0, 414.0, 414.0, 413.0, 413.0, 413.0, 412.0, 413.0, 414.0, 414.0, 414.0, 415.0, 415.0, 416.0, 416.0, 416.0, 415.0, 415.0, 415.0, 414.0, 414.0, 414.0, 415.0, 415.0, 415.0, 415.0, 414.0, 413.0, 414.0, 414.0, 415.0, 414.0, 413.0, 413.0, 413.0, 413.0, 415.0, 415.0, 415.0, 415.0, 415.0, 414.0, 414.0, 415.0, 414.0, 415.0, 415.0, 415.0, 415.0, 414.0, 414.0, 414.0, 413.0, 413.0, 414.0, 414.0, 414.0, 414.0, 415.0, 415.0, 415.0, 415.0, 415.0, 413.0, 413.0, 413.0, 413.0, 413.0, 414.0, 414.0, 414.0, 414.0, 414.0, 415.0, 414.0, 414.0, 414.0, 414.0, 414.0, 415.0, 415.0, 415.0, 416.0, 415.0, 415.0, 414.0, 415.0, 415.0, 415.0, 415.0, 414.0, 414.0, 414.0, 414.0, 413.0, 412.0, 413.0, 414.0, 414.0, 415.0, 416.0, 416.0, 415.0, 415.0, 414.0, 414.0, 415.0, 415.0, 415.0, 415.0, 415.0, 415.0, 414.0, 414.0, 414.0, 414.0, 414.0, 415.0, 415.0, 415.0, 414.0, 415.0, 414.0, 413.0, 413.0, 414.0, 414.0, 414.0, 415.0, 415.0, 415.0, 415.0, 415.0, 416.0, 415.0, 415.0, 415.0, 415.0, 416.0, 416.0, 417.0, 416.0, 415.0, 415.0, 415.0, 414.0, 413.0, 414.0, 415.0, 415.0, 415.0, 416.0, 416.0, 415.0, 415.0, 415.0, 415.0, 415.0, 415.0, 415.0, 415.0, 415.0, 415.0, 415.0, 414.0, 415.0, 415.0, 414.0, 414.0, 415.0, 414.0, 415.0, 416.0, 417.0, 416.0, 416.0, 416.0, 415.0, 415.0, 415.0, 415.0, 414.0, 414.0, 414.0, 414.0, 415.0, 415.0, 416.0, 415.0, 415.0, 415.0, 415.0, 415.0, 415.0, 415.0, 416.0, 415.0, 415.0, 414.0, 415.0, 415.0, 415.0, 415.0, 415.0, 415.0, 415.0, 415.0, 415.0, 414.0, 414.0, 414.0, 414.0, 413.0, 413.0, 414.0, 415.0, 415.0, 415.0, 415.0, 414.0, 414.0, 414.0, 414.0, 415.0, 415.0, 414.0, 415.0, 415.0, 414.0, 415.0, 415.0, 414.0, 415.0, 415.0, 415.0, 415.0, 415.0, 415.0, 415.0, 416.0, 415.0, 415.0, 415.0, 415.0, 415.0, 415.0, 416.0, 416.0, 416.0, 417.0, 416.0, 415.0, 414.0, 415.0, 415.0, 415.0, 415.0, 415.0, 415.0, 414.0],
