{
  "AcquisitionMatrixPE": 104,
  "AcquisitionNumber": 1,
  "AcquisitionTime": "09:55:37.917500",
  "BandwidthPerPixelPhaseEncode": 43.054,
  "BaseResolution": 104,
  "CoilString": "C:E1_2",
  "ConversionSoftware": "dcm2niix",
  "ConversionSoftwareVersion": "v1.0.20191031",
  "DerivedVendorReportedEchoSpacing": 0.000669999,
  "DeviceSerialNumber": "18932",
  "DwellTime": 2.8e-06,
  "EchoTime": 0.02,
  "EffectiveEchoSpacing": 0.000223333,
  "FlipAngle": 30,
  "ImageComments": "Unaliased_MB2_PE2",
  "ImageOrientationPatientDICOM": [1, 0, 0, 0, 0.992546, -0.121869],
  "ImageType": [
    "ORIGINAL",
    "PRIMARY",
    "M",
    "MB",
    "ND",
    "MOSAIC"
],
  "ImagingFrequency": 297.23,
  "InPlanePhaseEncodingDirectionDICOM": "COL",
  "InstitutionAddress": "Richmond_Street_North_1151_London_409EF2_Ontario_CA_N6A_5B7",
  "InstitutionName": "Robarts_Reserch_Institute",
  "InstitutionalDepartmentName": "Department",
  "MRAcquisitionType": "2D",
  "MagneticFieldStrength": 6.98,
  "Manufacturer": "Siemens",
  "ManufacturersModelName": "Investigational_Device_7T",
  "Modality": "MR",
  "MultibandAccelerationFactor": 2,
  "ParallelReductionFactorInPlane": 3,
  "PartialFourier": 0.875,
  "PatientPosition": "HFS",
  "PercentPhaseFOV": 100,
  "PhaseEncodingDirection": "j-",
  "PhaseEncodingSteps": 91,
  "PhaseResolution": 1,
  "PixelBandwidth": 1717,
  "ProcedureStepDescription": "Diedrichsen_SeqRep4",
  "ProtocolName": "mbep2d_bold_mb2_p3_AP_2iso",
  "PulseSequenceDetails": "%CustomerSeq%_cmrr_mbep2d_bold",
  "ReceiveCoilName": "CFMM_8Tx32Rx",
  "ReconMatrixPE": 104,
  "RefLinesPE": 36,
  "RepetitionTime": 1,
  "ScanOptions": "PFP_FS",
  "ScanningSequence": "EP",
  "SequenceName": "epfid2d1_104",
  "SequenceVariant": "SK_SS",
  "SeriesDescription": "mbep2d_bold_mb2_p3_AP_2iso",
  "SeriesNumber": 27,
  "ShimSetting": [-39, 2025, 376, 241, 228, 77, -97, -67],
  "SliceThickness": 2,
  "SliceTiming": [0, 0.2275, 0.455, 0.6825, 0.9125, 0.1375, 0.365, 0.5925, 0.82, 0.045, 0.2725, 0.5025, 0.73, 0.9575, 0.1825, 0.41, 0.6375, 0.865, 0.09, 0.32, 0.5475, 0.775, 0, 0.2275, 0.455, 0.6825, 0.9125, 0.1375, 0.365, 0.5925, 0.82, 0.045, 0.2725, 0.5025, 0.73, 0.9575, 0.1825, 0.41, 0.6375, 0.865, 0.09, 0.32, 0.5475, 0.775],
  "SoftwareVersions": "syngo_MR_B17",
  "SpacingBetweenSlices": 2,
  "StationName": "MASTER",
  "TaskName": "dsp",
  "TotalReadoutTime": 0.0230033,
  "TxRefAmp": 120,
  "dcmmeta_affine": [
    [-2.0, 0.0, 0.0, 108.35835266113281],
    [0.0, 1.985092282295227, -0.24373869597911835, -107.62377166748047],
    [0.0, 0.24373868107795715, 1.985092282295227, -34.82061767578125],
    [0.0, 0.0, 0.0, 1.0]
],
  "dcmmeta_reorient_transform": [
    [0.0, -1.0, 0.0, 103.0],
    [1.0, 0.0, 0.0, 0.0],
    [0.0, 0.0, 1.0, 0.0],
    [0.0, 0.0, 0.0, 1.0]
],
  "dcmmeta_shape": [104, 104, 44, 330],
  "dcmmeta_slice_dim": 2,
  "dcmmeta_version": 0.6,
  "global": {
    "const": {
      "AcquisitionMatrix": [104, 0, 0, 104],
      "AngioFlag": "N",
      "BitsAllocated": 16,
      "BitsStored": 12,
      "Columns": 728,
      "EchoNumbers": 1,
      "EchoTime": 20.0,
      "EchoTrainLength": 1,
      "FlipAngle": 30.0,
      "HighBit": 11,
      "ImageOrientationPatient": [1.0, 0.0, 0.0, 0.0, 0.99254615167353, -0.1218693431428],
      "ImagePositionPatient": [-732.35835361481, -716.18953612814, 66.330935824086],
      "ImageType": [
        "ORIGINAL",
        "PRIMARY",
        "M",
        "MB",
        "ND",
        "MOSAIC"
],
      "ImagedNucleus": "1H",
      "ImagingFrequency": 297.230166,
      "InPlanePhaseEncodingDirection": "COL",
      "MRAcquisitionType": "2D",
      "MagneticFieldStrength": 6.98,
      "Manufacturer": "SIEMENS",
      "ManufacturerModelName": "Investigational_Device_7T",
      "Modality": "MR",
      "NumberOfAverages": 1.0,
      "NumberOfPhaseEncodingSteps": 91,
      "PercentPhaseFieldOfView": 100.0,
      "PercentSampling": 100.0,
      "PerformedProcedureStepStartTime": "085638.812000",
      "PhotometricInterpretation": "MONOCHROME2",
      "PixelBandwidth": 1717.0,
      "PixelRepresentation": 0,
      "PixelSpacing": [2.0, 2.0],
      "ProtocolName": "mbep2d_bold_mb2_p3_AP 2iso",
      "RepetitionTime": 1000.0,
      "Rows": 728,
      "SAR": 0.0,
      "SamplesPerPixel": 1,
      "ScanOptions": [
        "PFP",
        "FS"
],
      "ScanningSequence": "EP",
      "SequenceName": "epfid2d1_104",
      "SequenceVariant": [
        "SK",
        "SS"
],
      "SeriesDescription": "mbep2d_bold_mb2_p3_AP 2iso",
      "SeriesNumber": 27,
      "SeriesTime": "095601.843000",
      "SliceLocation": -21.445033244596,
      "SliceThickness": 2.0,
      "SmallestImagePixelValue": 0,
      "SoftwareVersions": "syngo MR B17",
      "SpacingBetweenSlices": 2.0000000380287,
      "SpecificCharacterSet": "ISO_IR 100",
      "StudyID": "1",
      "StudyTime": "085638.765000",
      "TransmitCoilName": "CFMM_8Tx32Rx",
      "VariableFlipAngleFlag": "N",
      "WindowCenterWidthExplanation": "Algo1",
      "dBdt": 0.0},
    "slices": {}
  },
  "time": {
    "samples": {
      "AcquisitionNumber": [1, 2, 3, 4, 5, 6, 7, 8, 9, 10, 11, 12, 13, 14, 15, 16, 17, 18, 19, 20, 21, 22, 23, 24, 25, 26, 27, 28, 29, 30, 31, 32, 33, 34, 35, 36, 37, 38, 39, 40, 41, 42, 43, 44, 45, 46, 47, 48, 49, 50, 51, 52, 53, 54, 55, 56, 57, 58, 59, 60, 61, 62, 63, 64, 65, 66, 67, 68, 69, 70, 71, 72, 73, 74, 75, 76, 77, 78, 79, 80, 81, 82, 83, 84, 85, 86, 87, 88, 89, 90, 91, 92, 93, 94, 95, 96, 97, 98, 99, 100, 101, 102, 103, 104, 105, 106, 107, 108, 109, 110, 111, 112, 113, 114, 115, 116, 117, 118, 119, 120, 121, 122, 123, 124, 125, 126, 127, 128, 129, 130, 131, 132, 133, 134, 135, 136, 137, 138, 139, 140, 141, 142, 143, 144, 145, 146, 147, 148, 149, 150, 151, 152, 153, 154, 155, 156, 157, 158, 159, 160, 161, 162, 163, 164, 165, 166, 167, 168, 169, 170, 171, 172, 173, 174, 175, 176, 177, 178, 179, 180, 181, 182, 183, 184, 185, 186, 187, 188, 189, 190, 191, 192, 193, 194, 195, 196, 197, 198, 199, 200, 201, 202, 203, 204, 205, 206, 207, 208, 209, 210, 211, 212, 213, 214, 215, 216, 217, 218, 219, 220, 221, 222, 223, 224, 225, 226, 227, 228, 229, 230, 231, 232, 233, 234, 235, 236, 237, 238, 239, 240, 241, 242, 243, 244, 245, 246, 247, 248, 249, 250, 251, 252, 253, 254, 255, 256, 257, 258, 259, 260, 261, 262, 263, 264, 265, 266, 267, 268, 269, 270, 271, 272, 273, 274, 275, 276, 277, 278, 279, 280, 281, 282, 283, 284, 285, 286, 287, 288, 289, 290, 291, 292, 293, 294, 295, 296, 297, 298, 299, 300, 301, 302, 303, 304, 305, 306, 307, 308, 309, 310, 311, 312, 313, 314, 315, 316, 317, 318, 319, 320, 321, 322, 323, 324, 325, 326, 327, 328, 329, 330],
      "AcquisitionTime": ["095537.917500", "095538.920000", "095539.925000", "095540.930000", "095541.932500", "095542.937500", "095543.940000", "095544.945000", "095545.950000", "095546.952500", "095547.957500", "095548.960000", "095549.965000", "095550.970000", "095551.972500", "095552.977500", "095553.982500", "095554.985000", "095555.990000", "095556.992500", "095557.997500", "095559.002500", "095600.005000", "095601.010000", "095602.012500", "095603.017500", "095604.022500", "095605.025000", "095606.030000", "095607.032500", "095608.037500", "095609.042500", "095610.045000", "095611.050000", "095612.052500", "095613.057500", "095614.062500", "095615.065000", "095616.070000", "095617.072500", "095618.077500", "095619.082500", "095620.085000", "095621.090000", "095622.095000", "095623.097500", "095624.102500", "095625.105000", "095626.110000", "095627.115000", "095628.117500", "095629.122500", "095630.125000", "095631.130000", "095632.135000", "095633.137500", "095634.142500", "095635.145000", "095636.150000", "095637.155000", "095638.157500", "095639.162500", "095640.165000", "095641.170000", "095642.175000", "095643.177500", "095644.182500", "095645.185000", "095646.190000", "095647.195000", "095648.197500", "095649.202500", "095650.205000", "095651.210000", "095652.215000", "095653.217500", "095654.222500", "095655.227500", "095656.230000", "095657.235000", "095658.237500", "095659.242500", "095700.247500", "095701.250000", "095702.255000", "095703.257500", "095704.262500", "095705.267500", "095706.270000", "095707.275000", "095708.277500", "095709.282500", "095710.287500", "095711.290000", "095712.295000", "095713.297500", "095714.302500", "095715.307500", "095716.310000", "095717.315000", "095718.317500", "095719.322500", "095720.327500", "095721.330000", "095722.335000", "095723.337500", "095724.342500", "095725.347500", "095726.350000", "095727.355000", "095728.360000", "095729.362500", "095730.367500", "095731.370000", "095732.375000", "095733.380000", "095734.382500", "095735.387500", "095736.390000", "095737.395000", "095738.400000", "095739.402500", "095740.407500", "095741.410000", "095742.415000", "095743.420000", "095744.422500", "095745.427500", "095746.430000", "095747.435000", "095748.440000", "095749.442500", "095750.447500", "095751.450000", "095752.455000", "095753.460000", "095754.462500", "095755.467500", "095756.472500", "095757.475000", "095758.480000", "095759.482500", "095800.487500", "095801.492500", "095802.495000", "095803.500000", "095804.502500", "095805.507500", "095806.512500", "095807.515000", "095808.520000", "095809.522500", "095810.527500", "095811.532500", "095812.535000", "095813.540000", "095814.542500", "095815.547500", "095816.552500", "095817.555000", "095818.560000", "095819.562500", "095820.567500", "095821.572500", "095822.575000", "095823.580000", "095824.582500", "095825.587500", "095826.592500", "095827.595000", "095828.600000", "095829.605000", "095830.607500", "095831.612500", "095832.615000", "095833.620000", "095834.625000", "095835.627500", "095836.632500", "095837.635000", "095838.640000", "095839.645000", "095840.647500", "095841.652500", "095842.655000", "095843.660000", "095844.665000", "095845.667500", "095846.672500", "095847.675000", "095848.680000", "095849.685000", "095850.687500", "095851.692500", "095852.695000", "095853.700000", "095854.705000", "095855.707500", "095856.712500", "095857.717500", "095858.720000", "095859.725000", "095900.727500", "095901.732500", "095902.737500", "095903.740000", "095904.745000", "095905.747500", "095906.752500", "095907.757500", "095908.760000", "095909.765000", "095910.767500", "095911.772500", "095912.777500", "095913.780000", "095914.785000", "095915.787500", "095916.792500", "095917.797500", "095918.800000", "095919.805000", "095920.807500", "095921.812500", "095922.817500", "095923.820000", "095924.825000", "095925.827500", "095926.832500", "095927.837500", "095928.840000", "095929.845000", "095930.850000", "095931.852500", "095932.857500", "095933.860000", "095934.865000", "095935.870000", "095936.872500", "095937.877500", "095938.880000", "095939.885000", "095940.890000", "095941.892500", "095942.897500", "095943.900000", "095944.905000", "095945.910000", "095946.912500", "095947.917500", "095948.920000", "095949.925000", "095950.930000", "095951.932500", "095952.937500", "095953.940000", "095954.945000", "095955.950000", "095956.952500", "095957.957500", "095958.960000", "095959.965000", "100000.970000", "100001.972500", "100002.977500", "100003.982500", "100004.985000", "100005.990000", "100006.992500", "100007.997500", "100009.002500", "100010.005000", "100011.010000", "100012.012500", "100013.017500", "100014.022500", "100015.025000", "100016.030000", "100017.032500", "100018.037500", "100019.042500", "100020.045000", "100021.050000", "100022.052500", "100023.057500", "100024.062500", "100025.065000", "100026.070000", "100027.072500", "100028.077500", "100029.082500", "100030.085000", "100031.090000", "100032.095000", "100033.097500", "100034.102500", "100035.105000", "100036.110000", "100037.115000", "100038.117500", "100039.122500", "100040.125000", "100041.130000", "100042.135000", "100043.137500", "100044.142500", "100045.145000", "100046.150000", "100047.155000", "100048.157500", "100049.162500", "100050.165000", "100051.170000", "100052.175000", "100053.177500", "100054.182500", "100055.185000", "100056.190000", "100057.195000", "100058.197500", "100059.202500", "100100.205000", "100101.210000", "100102.215000", "100103.217500", "100104.222500", "100105.227500", "100106.230000", "100107.235000", "100108.237500"],
      "ContentTime": ["095601.843000", "095601.859000", "095601.859000", "095601.859000", "095601.859000", "095601.859000", "095601.859000", "095601.859000", "095601.875000", "095601.875000", "095601.875000", "095601.875000", "095601.875000", "095601.875000", "095601.875000", "095601.875000", "095601.890000", "095601.890000", "095601.890000", "095601.890000", "095601.890000", "095601.890000", "095621.812000", "095621.812000", "095621.812000", "095621.812000", "095621.812000", "095621.812000", "095621.828000", "095621.828000", "095621.828000", "095621.828000", "095621.828000", "095621.828000", "095621.828000", "095621.843000", "095621.843000", "095621.843000", "095621.843000", "095621.843000", "095621.843000", "095621.843000", "095641.812000", "095641.812000", "095641.812000", "095641.812000", "095641.812000", "095641.812000", "095641.828000", "095641.828000", "095641.828000", "095641.828000", "095641.828000", "095641.828000", "095641.843000", "095641.843000", "095641.843000", "095641.843000", "095641.843000", "095641.859000", "095641.859000", "095641.859000", "095701.812000", "095701.812000", "095701.812000", "095701.812000", "095701.812000", "095701.828000", "095701.828000", "095701.828000", "095701.828000", "095701.828000", "095701.828000", "095701.843000", "095701.843000", "095701.843000", "095701.843000", "095701.843000", "095701.843000", "095701.843000", "095701.859000", "095701.859000", "095721.812000", "095721.812000", "095721.812000", "095721.812000", "095721.812000", "095721.812000", "095721.828000", "095721.828000", "095721.828000", "095721.828000", "095721.828000", "095721.843000", "095721.843000", "095721.843000", "095721.843000", "095721.843000", "095721.843000", "095721.859000", "095721.859000", "095721.859000", "095741.812000", "095741.812000", "095741.812000", "095741.812000", "095741.828000", "095741.828000", "095741.828000", "095741.828000", "095741.828000", "095741.828000", "095741.828000", "095741.843000", "095741.843000", "095741.843000", "095741.843000", "095741.843000", "095741.843000", "095741.843000", "095741.859000", "095741.859000", "095801.812000", "095801.812000", "095801.812000", "095801.812000", "095801.812000", "095801.812000", "095801.828000", "095801.828000", "095801.828000", "095801.828000", "095801.828000", "095801.828000", "095801.828000", "095801.843000", "095801.843000", "095801.843000", "095801.843000", "095801.843000", "095801.843000", "095801.859000", "095821.812000", "095821.812000", "095821.812000", "095821.828000", "095821.828000", "095821.828000", "095821.828000", "095821.828000", "095821.843000", "095821.843000", "095821.843000", "095821.843000", "095821.843000", "095821.843000", "095821.843000", "095821.843000", "095821.859000", "095821.859000", "095821.859000", "095821.859000", "095841.812000", "095841.812000", "095841.812000", "095841.812000", "095841.812000", "095841.812000", "095841.828000", "095841.828000", "095841.828000", "095841.828000", "095841.828000", "095841.828000", "095841.828000", "095841.843000", "095841.843000", "095841.843000", "095841.843000", "095841.843000", "095841.843000", "095841.843000", "095901.812000", "095901.812000", "095901.812000", "095901.812000", "095901.812000", "095901.812000", "095901.828000", "095901.828000", "095901.828000", "095901.828000", "095901.828000", "095901.828000", "095901.828000", "095901.843000", "095901.843000", "095901.843000", "095901.843000", "095901.843000", "095901.843000", "095901.859000", "095921.812000", "095921.812000", "095921.812000", "095921.812000", "095921.828000", "095921.828000", "095921.828000", "095921.828000", "095921.828000", "095921.828000", "095921.828000", "095921.843000", "095921.843000", "095921.843000", "095921.843000", "095921.843000", "095921.843000", "095921.843000", "095921.859000", "095921.859000", "095941.812000", "095941.812000", "095941.812000", "095941.812000", "095941.812000", "095941.812000", "095941.828000", "095941.828000", "095941.828000", "095941.828000", "095941.828000", "095941.828000", "095941.828000", "095941.843000", "095941.843000", "095941.843000", "095941.843000", "095941.843000", "095941.843000", "095941.843000", "100001.812000", "100001.812000", "100001.812000", "100001.812000", "100001.812000", "100001.812000", "100001.828000", "100001.828000", "100001.828000", "100001.828000", "100001.828000", "100001.828000", "100001.828000", "100001.843000", "100001.843000", "100001.843000", "100001.843000", "100001.859000", "100001.859000", "100001.859000", "100021.812000", "100021.812000", "100021.812000", "100021.812000", "100021.812000", "100021.812000", "100021.828000", "100021.828000", "100021.828000", "100021.828000", "100021.828000", "100021.828000", "100021.828000", "100021.828000", "100021.843000", "100021.843000", "100021.843000", "100021.843000", "100021.859000", "100021.859000", "100041.812000", "100041.812000", "100041.812000", "100041.812000", "100041.812000", "100041.812000", "100041.828000", "100041.828000", "100041.828000", "100041.828000", "100041.828000", "100041.828000", "100041.828000", "100041.843000", "100041.843000", "100041.843000", "100041.843000", "100041.859000", "100041.859000", "100041.859000", "100101.812000", "100101.812000", "100101.812000", "100101.812000", "100101.812000", "100101.828000", "100101.828000", "100101.828000", "100101.828000", "100101.828000", "100101.828000", "100101.828000", "100101.843000", "100101.843000", "100101.843000", "100101.843000", "100101.843000", "100101.843000", "100101.843000", "100101.843000", "100114.468000", "100114.468000", "100114.468000", "100114.468000", "100114.468000", "100114.468000", "100114.468000", "100114.484000"],
      "InstanceCreationTime": ["095601.843000", "095601.859000", "095601.859000", "095601.859000", "095601.859000", "095601.859000", "095601.859000", "095601.859000", "095601.875000", "095601.875000", "095601.875000", "095601.875000", "095601.875000", "095601.875000", "095601.875000", "095601.875000", "095601.890000", "095601.890000", "095601.890000", "095601.890000", "095601.890000", "095601.890000", "095621.812000", "095621.812000", "095621.812000", "095621.812000", "095621.812000", "095621.812000", "095621.828000", "095621.828000", "095621.828000", "095621.828000", "095621.828000", "095621.828000", "095621.828000", "095621.843000", "095621.843000", "095621.843000", "095621.843000", "095621.843000", "095621.843000", "095621.843000", "095641.812000", "095641.812000", "095641.812000", "095641.812000", "095641.812000", "095641.812000", "095641.828000", "095641.828000", "095641.828000", "095641.828000", "095641.828000", "095641.828000", "095641.843000", "095641.843000", "095641.843000", "095641.843000", "095641.843000", "095641.859000", "095641.859000", "095641.859000", "095701.812000", "095701.812000", "095701.812000", "095701.812000", "095701.812000", "095701.828000", "095701.828000", "095701.828000", "095701.828000", "095701.828000", "095701.828000", "095701.843000", "095701.843000", "095701.843000", "095701.843000", "095701.843000", "095701.843000", "095701.843000", "095701.859000", "095701.859000", "095721.812000", "095721.812000", "095721.812000", "095721.812000", "095721.812000", "095721.812000", "095721.828000", "095721.828000", "095721.828000", "095721.828000", "095721.828000", "095721.843000", "095721.843000", "095721.843000", "095721.843000", "095721.843000", "095721.843000", "095721.859000", "095721.859000", "095721.859000", "095741.812000", "095741.812000", "095741.812000", "095741.812000", "095741.828000", "095741.828000", "095741.828000", "095741.828000", "095741.828000", "095741.828000", "095741.828000", "095741.843000", "095741.843000", "095741.843000", "095741.843000", "095741.843000", "095741.843000", "095741.843000", "095741.859000", "095741.859000", "095801.812000", "095801.812000", "095801.812000", "095801.812000", "095801.812000", "095801.812000", "095801.828000", "095801.828000", "095801.828000", "095801.828000", "095801.828000", "095801.828000", "095801.828000", "095801.843000", "095801.843000", "095801.843000", "095801.843000", "095801.843000", "095801.843000", "095801.859000", "095821.812000", "095821.812000", "095821.812000", "095821.828000", "095821.828000", "095821.828000", "095821.828000", "095821.828000", "095821.843000", "095821.843000", "095821.843000", "095821.843000", "095821.843000", "095821.843000", "095821.843000", "095821.843000", "095821.859000", "095821.859000", "095821.859000", "095821.859000", "095841.812000", "095841.812000", "095841.812000", "095841.812000", "095841.812000", "095841.812000", "095841.828000", "095841.828000", "095841.828000", "095841.828000", "095841.828000", "095841.828000", "095841.828000", "095841.843000", "095841.843000", "095841.843000", "095841.843000", "095841.843000", "095841.843000", "095841.843000", "095901.812000", "095901.812000", "095901.812000", "095901.812000", "095901.812000", "095901.812000", "095901.828000", "095901.828000", "095901.828000", "095901.828000", "095901.828000", "095901.828000", "095901.828000", "095901.843000", "095901.843000", "095901.843000", "095901.843000", "095901.843000", "095901.843000", "095901.859000", "095921.812000", "095921.812000", "095921.812000", "095921.812000", "095921.828000", "095921.828000", "095921.828000", "095921.828000", "095921.828000", "095921.828000", "095921.828000", "095921.843000", "095921.843000", "095921.843000", "095921.843000", "095921.843000", "095921.843000", "095921.843000", "095921.859000", "095921.859000", "095941.812000", "095941.812000", "095941.812000", "095941.812000", "095941.812000", "095941.812000", "095941.828000", "095941.828000", "095941.828000", "095941.828000", "095941.828000", "095941.828000", "095941.828000", "095941.843000", "095941.843000", "095941.843000", "095941.843000", "095941.843000", "095941.843000", "095941.843000", "100001.812000", "100001.812000", "100001.812000", "100001.812000", "100001.812000", "100001.812000", "100001.828000", "100001.828000", "100001.828000", "100001.828000", "100001.828000", "100001.828000", "100001.828000", "100001.843000", "100001.843000", "100001.843000", "100001.843000", "100001.859000", "100001.859000", "100001.859000", "100021.812000", "100021.812000", "100021.812000", "100021.812000", "100021.812000", "100021.812000", "100021.828000", "100021.828000", "100021.828000", "100021.828000", "100021.828000", "100021.828000", "100021.828000", "100021.828000", "100021.843000", "100021.843000", "100021.843000", "100021.843000", "100021.859000", "100021.859000", "100041.812000", "100041.812000", "100041.812000", "100041.812000", "100041.812000", "100041.812000", "100041.828000", "100041.828000", "100041.828000", "100041.828000", "100041.828000", "100041.828000", "100041.828000", "100041.843000", "100041.843000", "100041.843000", "100041.843000", "100041.859000", "100041.859000", "100041.859000", "100101.812000", "100101.812000", "100101.812000", "100101.812000", "100101.812000", "100101.828000", "100101.828000", "100101.828000", "100101.828000", "100101.828000", "100101.828000", "100101.828000", "100101.843000", "100101.843000", "100101.843000", "100101.843000", "100101.843000", "100101.843000", "100101.843000", "100101.843000", "100114.468000", "100114.468000", "100114.468000", "100114.468000", "100114.468000", "100114.468000", "100114.468000", "100114.484000"],
      "InstanceNumber": [1, 2, 3, 4, 5, 6, 7, 8, 9, 10, 11, 12, 13, 14, 15, 16, 17, 18, 19, 20, 21, 22, 23, 24, 25, 26, 27, 28, 29, 30, 31, 32, 33, 34, 35, 36, 37, 38, 39, 40, 41, 42, 43, 44, 45, 46, 47, 48, 49, 50, 51, 52, 53, 54, 55, 56, 57, 58, 59, 60, 61, 62, 63, 64, 65, 66, 67, 68, 69, 70, 71, 72, 73, 74, 75, 76, 77, 78, 79, 80, 81, 82, 83, 84, 85, 86, 87, 88, 89, 90, 91, 92, 93, 94, 95, 96, 97, 98, 99, 100, 101, 102, 103, 104, 105, 106, 107, 108, 109, 110, 111, 112, 113, 114, 115, 116, 117, 118, 119, 120, 121, 122, 123, 124, 125, 126, 127, 128, 129, 130, 131, 132, 133, 134, 135, 136, 137, 138, 139, 140, 141, 142, 143, 144, 145, 146, 147, 148, 149, 150, 151, 152, 153, 154, 155, 156, 157, 158, 159, 160, 161, 162, 163, 164, 165, 166, 167, 168, 169, 170, 171, 172, 173, 174, 175, 176, 177, 178, 179, 180, 181, 182, 183, 184, 185, 186, 187, 188, 189, 190, 191, 192, 193, 194, 195, 196, 197, 198, 199, 200, 201, 202, 203, 204, 205, 206, 207, 208, 209, 210, 211, 212, 213, 214, 215, 216, 217, 218, 219, 220, 221, 222, 223, 224, 225, 226, 227, 228, 229, 230, 231, 232, 233, 234, 235, 236, 237, 238, 239, 240, 241, 242, 243, 244, 245, 246, 247, 248, 249, 250, 251, 252, 253, 254, 255, 256, 257, 258, 259, 260, 261, 262, 263, 264, 265, 266, 267, 268, 269, 270, 271, 272, 273, 274, 275, 276, 277, 278, 279, 280, 281, 282, 283, 284, 285, 286, 287, 288, 289, 290, 291, 292, 293, 294, 295, 296, 297, 298, 299, 300, 301, 302, 303, 304, 305, 306, 307, 308, 309, 310, 311, 312, 313, 314, 315, 316, 317, 318, 319, 320, 321, 322, 323, 324, 325, 326, 327, 328, 329, 330],
      "LargestImagePixelValue": [2212, 2238, 2069, 2058, 2075, 2133, 2114, 2037, 2101, 2130, 2161, 2029, 2050, 2152, 2065, 2082, 2129, 2165, 2073, 2099, 2147, 2155, 2102, 2078, 2167, 2098, 2084, 2141, 2095, 2060, 2075, 2141, 2092, 2068, 2101, 2034, 2060, 1993, 2033, 2057, 2050, 2027, 1963, 1977, 2042, 2023, 2011, 1983, 1988, 2009, 1980, 1975, 1988, 2001, 1976, 1999, 1971, 1947, 1965, 1975, 2003, 1973, 2009, 1959, 1973, 1967, 1996, 2004, 2010, 2005, 2010, 2026, 2007, 2007, 2018, 2025, 1970, 2005, 2023, 2046, 2037, 2013, 2002, 2000, 2020, 1994, 1980, 1963, 1988, 2013, 1983, 1988, 1941, 2010, 1987, 2010, 1971, 1982, 1971, 1958, 1971, 1981, 1992, 2009, 1987, 1965, 1965, 1967, 1998, 1956, 1984, 1980, 1957, 1974, 1958, 1940, 1939, 1921, 1970, 1956, 1948, 1952, 1931, 1920, 1899, 1969, 1948, 1877, 1900, 1961, 1864, 1898, 1869, 1909, 1855, 1871, 1890, 1892, 1885, 1894, 1925, 1847, 1944, 1907, 1918, 1870, 1912, 1883, 1886, 1890, 1848, 1891, 1892, 1883, 1878, 1888, 1880, 1899, 1937, 1928, 1911, 1950, 1941, 1954, 1934, 1917, 1906, 1935, 1995, 1873, 1851, 1872, 1896, 1959, 1945, 1866, 1872, 1905, 1890, 1889, 1898, 1891, 1907, 1923, 1915, 1902, 1912, 1922, 1943, 1952, 1869, 1900, 1916, 1930, 1903, 1918, 1943, 1929, 1923, 1978, 1925, 1934, 1914, 1957, 1907, 1921, 1898, 1908, 1932, 1961, 1944, 1935, 1934, 1940, 1906, 1896, 1915, 1895, 1914, 1939, 1934, 1922, 1917, 1948, 1961, 1942, 1962, 1921, 1987, 1956, 1919, 1892, 1934, 1906, 1929, 1900, 1920, 1908, 1963, 1933, 1929, 1938, 1945, 1940, 1946, 1969, 1930, 1926, 1962, 2021, 1940, 1944, 1946, 1907, 1925, 1898, 1928, 1881, 1939, 1912, 1960, 1917, 1931, 1912, 1917, 1877, 1872, 1879, 1908, 1910, 1913, 1921, 1962, 1956, 2004, 1944, 1963, 1988, 2014, 1960, 1948, 1914, 1915, 1921, 1895, 1918, 1941, 1931, 1935, 1921, 1952, 1935, 1972, 1961, 2014, 1989, 1943, 1963, 2005, 1961, 1969, 1944, 1967, 2002, 1960, 1930, 1919, 1942, 1937, 1931, 1898, 1938, 1898, 1952, 1935, 1910, 1937, 1919, 1917, 1938, 1900, 1895, 1925, 1939, 1928, 1914, 1918, 1913, 1897, 1924],
      "WindowCenter": [412.0, 411.0, 412.0, 412.0, 412.0, 411.0, 411.0, 411.0, 411.0, 411.0, 410.0, 409.0, 410.0, 411.0, 411.0, 411.0, 411.0, 411.0, 411.0, 411.0, 411.0, 412.0, 412.0, 411.0, 411.0, 410.0, 410.0, 410.0, 410.0, 410.0, 410.0, 411.0, 410.0, 410.0, 411.0, 411.0, 411.0, 411.0, 412.0, 411.0, 411.0, 411.0, 410.0, 410.0, 410.0, 412.0, 411.0, 411.0, 411.0, 410.0, 410.0, 410.0, 409.0, 408.0, 409.0, 409.0, 409.0, 410.0, 410.0, 410.0, 410.0, 410.0, 410.0, 410.0, 411.0, 410.0, 410.0, 410.0, 410.0, 410.0, 410.0, 409.0, 409.0, 409.0, 411.0, 410.0, 410.0, 410.0, 411.0, 412.0, 411.0, 411.0, 412.0, 412.0, 411.0, 410.0, 411.0, 411.0, 410.0, 411.0, 411.0, 412.0, 410.0, 410.0, 410.0, 410.0, 410.0, 410.0, 411.0, 410.0, 410.0, 410.0, 410.0, 411.0, 410.0, 411.0, 411.0, 411.0, 411.0, 410.0, 410.0, 410.0, 409.0, 410.0, 409.0, 409.0, 410.0, 410.0, 410.0, 410.0, 411.0, 411.0, 412.0, 411.0, 411.0, 410.0, 409.0, 409.0, 409.0, 409.0, 408.0, 410.0, 410.0, 411.0, 411.0, 410.0, 409.0, 410.0, 409.0, 409.0, 408.0, 408.0, 410.0, 410.0, 410.0, 410.0, 410.0, 410.0, 409.0, 409.0, 409.0, 409.0, 409.0, 410.0, 410.0, 409.0, 409.0, 409.0, 409.0, 409.0, 410.0, 411.0, 411.0, 411.0, 411.0, 409.0, 409.0, 409.0, 409.0, 408.0, 409.0, 410.0, 410.0, 409.0, 410.0, 408.0, 408.0, 408.0, 408.0, 408.0, 409.0, 409.0, 410.0, 410.0, 410.0, 410.0, 409.0, 409.0, 409.0, 410.0, 409.0, 410.0, 411.0, 410.0, 410.0, 410.0, 410.0, 409.0, 410.0, 411.0, 410.0, 410.0, 409.0, 410.0, 408.0, 409.0, 410.0, 410.0, 411.0, 411.0, 410.0, 410.0, 410.0, 409.0, 408.0, 408.0, 408.0, 409.0, 410.0, 410.0, 410.0, 409.0, 410.0, 410.0, 411.0, 411.0, 410.0, 411.0, 411.0, 410.0, 409.0, 408.0, 410.0, 409.0, 409.0, 409.0, 409.0, 409.0, 410.0, 410.0, 409.0, 410.0, 410.0, 410.0, 410.0, 410.0, 410.0, 410.0, 411.0, 410.0, 410.0, 410.0, 410.0, 409.0, 409.0, 408.0, 407.0, 408.0, 410.0, 410.0, 410.0, 410.0, 410.0, 409.0, 408.0, 409.0, 409.0, 410.0, 410.0, 410.0, 410.0, 410.0, 409.0, 410.0, 411.0, 411.0, 411.0, 411.0, 411.0, 410.0, 410.0, 409.0, 409.0, 408.0, 408.0, 410.0, 410.0, 410.0, 411.0, 410.0, 410.0, 410.0, 411.0, 410.0, 412.0, 412.0, 410.0, 410.0, 410.0, 410.0, 410.0, 410.0, 411.0, 411.0, 409.0, 409.0, 409.0, 408.0, 408.0, 408.0, 408.0, 407.0, 408.0, 409.0, 410.0, 409.0, 410.0, 410.0, 410.0, 409.0, 409.0, 409.0, 408.0, 409.0, 409.0, 409.0, 408.0, 409.0, 409.0, 409.0],
