{
  "AcquisitionMatrixPE": 104,
  "AcquisitionNumber": 1,
  "AcquisitionTime": "11:39:23.442500",
  "BandwidthPerPixelPhaseEncode": 43.054,
  "BaseResolution": 104,
  "CoilString": "C:E1_2",
  "ConversionSoftware": "dcm2niix",
  "ConversionSoftwareVersion": "v1.0.20191031",
  "DerivedVendorReportedEchoSpacing": 0.000669999,
  "DeviceSerialNumber": "18932",
  "DwellTime": 2.8e-06,
  "EchoTime": 0.02,
  "EffectiveEchoSpacing": 0.000223333,
  "FlipAngle": 30,
  "ImageComments": "Unaliased_MB2_PE2",
  "ImageOrientationPatientDICOM": [1, 2e-16, 0, -2e-16, 0.965926, -0.258819],
  "ImageType": [
    "ORIGINAL",
    "PRIMARY",
    "M",
    "MB",
    "ND",
    "MOSAIC"
],
  "ImagingFrequency": 297.229,
  "InPlanePhaseEncodingDirectionDICOM": "COL",
  "InstitutionAddress": "Richmond_Street_North_1151_London_409EF2_Ontario_CA_N6A_5B7",
  "InstitutionName": "Robarts_Reserch_Institute",
  "InstitutionalDepartmentName": "Department",
  "MRAcquisitionType": "2D",
  "MagneticFieldStrength": 6.98,
  "Manufacturer": "Siemens",
  "ManufacturersModelName": "Investigational_Device_7T",
  "Modality": "MR",
  "MultibandAccelerationFactor": 2,
  "ParallelReductionFactorInPlane": 3,
  "PartialFourier": 0.875,
  "PatientPosition": "HFS",
  "PercentPhaseFOV": 100,
  "PhaseEncodingDirection": "j-",
  "PhaseEncodingSteps": 91,
  "PhaseResolution": 1,
  "PixelBandwidth": 1717,
  "ProcedureStepDescription": "Diedrichsen_SeqRep4",
  "ProtocolName": "mbep2d_bold_mb2_p3_AP_2iso",
  "PulseSequenceDetails": "%CustomerSeq%_cmrr_mbep2d_bold",
  "ReceiveCoilName": "CFMM_8Tx32Rx",
  "ReconMatrixPE": 104,
  "RefLinesPE": 36,
  "RepetitionTime": 1,
  "ScanOptions": "PFP_FS",
  "ScanningSequence": "EP",
  "SequenceName": "epfid2d1_104",
  "SequenceVariant": "SK_SS",
  "SeriesDescription": "mbep2d_bold_mb2_p3_AP_2iso",
  "SeriesNumber": 13,
  "ShimSetting": [17, 2079, 27, 1472, -66, -420, 219, -110],
  "SliceThickness": 2,
  "SliceTiming": [0, 0.2275, 0.455, 0.685, 0.9125, 0.1375, 0.365, 0.5925, 0.82, 0.045, 0.2725, 0.5025, 0.73, 0.9575, 0.1825, 0.41, 0.6375, 0.8675, 0.0925, 0.32, 0.5475, 0.775, 0, 0.2275, 0.455, 0.685, 0.9125, 0.1375, 0.365, 0.5925, 0.82, 0.045, 0.2725, 0.5025, 0.73, 0.9575, 0.1825, 0.41, 0.6375, 0.8675, 0.0925, 0.32, 0.5475, 0.775],
  "SoftwareVersions": "syngo_MR_B17",
  "SpacingBetweenSlices": 2,
  "StationName": "MASTER",
  "TaskName": "dsp",
  "TotalReadoutTime": 0.0230033,
  "TxRefAmp": 120,
  "dcmmeta_affine": [
    [-2.0, -4.000000067449534e-16, 1.035276159788667e-16, 105.4527816772461],
    [-4.000000067449534e-16, 1.9318516254425049, -0.517638087272644, -109.18914794921875],
    [0.0, 0.517638087272644, 1.9318516254425049, -62.17266082763672],
    [0.0, 0.0, 0.0, 1.0]
],
  "dcmmeta_reorient_transform": [
    [0.0, -1.0, 0.0, 103.0],
    [1.0, 0.0, 0.0, 0.0],
    [0.0, 0.0, 1.0, 0.0],
    [0.0, 0.0, 0.0, 1.0]
],
  "dcmmeta_shape": [104, 104, 44, 330],
  "dcmmeta_slice_dim": 2,
  "dcmmeta_version": 0.6,
  "global": {
    "const": {
      "AcquisitionMatrix": [104, 0, 0, 104],
      "AngioFlag": "N",
      "BitsAllocated": 16,
      "BitsStored": 12,
      "Columns": 728,
      "EchoNumbers": 1,
      "EchoTime": 20.0,
      "EchoTrainLength": 1,
      "FlipAngle": 30.0,
      "HighBit": 11,
      "ImageOrientationPatient": [1.0, 2e-16, 0.0, -2e-16, 0.9659258278573, -0.2588190392498],
      "ImagePositionPatient": [-729.45278453827, -692.52928595953, 152.64714350843],
      "ImageType": [
        "ORIGINAL",
        "PRIMARY",
        "M",
        "MB",
        "ND",
        "MOSAIC"
],
      "ImagedNucleus": "1H",
      "ImagingFrequency": 297.22885,
      "InPlanePhaseEncodingDirection": "COL",
      "MRAcquisitionType": "2D",
      "MagneticFieldStrength": 6.98,
      "Manufacturer": "SIEMENS",
      "ManufacturerModelName": "Investigational_Device_7T",
      "Modality": "MR",
      "NumberOfAverages": 1.0,
      "NumberOfPhaseEncodingSteps": 91,
      "PercentPhaseFieldOfView": 100.0,
      "PercentSampling": 100.0,
      "PerformedProcedureStepStartTime": "112012.734000",
      "PhotometricInterpretation": "MONOCHROME2",
      "PixelBandwidth": 1717.0,
      "PixelRepresentation": 0,
      "PixelSpacing": [2.0, 2.0],
      "ProtocolName": "mbep2d_bold_mb2_p3_AP 2iso",
      "RepetitionTime": 1000.0,
      "Rows": 728,
      "SAR": 0.0,
      "SamplesPerPixel": 1,
      "ScanOptions": [
        "PFP",
        "FS"
],
      "ScanningSequence": "EP",
      "SequenceName": "epfid2d1_104",
      "SequenceVariant": [
        "SK",
        "SS"
],
      "SeriesDescription": "mbep2d_bold_mb2_p3_AP 2iso",
      "SeriesNumber": 13,
      "SeriesTime": "113957.937000",
      "SliceLocation": -31.793945980969,
      "SliceThickness": 2.0,
      "SmallestImagePixelValue": 0,
      "SoftwareVersions": "syngo MR B17",
      "SpacingBetweenSlices": 2.0000000119034,
      "SpecificCharacterSet": "ISO_IR 100",
      "StudyID": "1",
      "StudyTime": "112012.671000",
      "TransmitCoilName": "CFMM_8Tx32Rx",
      "VariableFlipAngleFlag": "N",
      "WindowCenterWidthExplanation": "Algo1",
      "dBdt": 0.0},
    "slices": {}
  },
  "time": {
    "samples": {
      "AcquisitionNumber": [1, 2, 3, 4, 5, 6, 7, 8, 9, 10, 11, 12, 13, 14, 15, 16, 17, 18, 19, 20, 21, 22, 23, 24, 25, 26, 27, 28, 29, 30, 31, 32, 33, 34, 35, 36, 37, 38, 39, 40, 41, 42, 43, 44, 45, 46, 47, 48, 49, 50, 51, 52, 53, 54, 55, 56, 57, 58, 59, 60, 61, 62, 63, 64, 65, 66, 67, 68, 69, 70, 71, 72, 73, 74, 75, 76, 77, 78, 79, 80, 81, 82, 83, 84, 85, 86, 87, 88, 89, 90, 91, 92, 93, 94, 95, 96, 97, 98, 99, 100, 101, 102, 103, 104, 105, 106, 107, 108, 109, 110, 111, 112, 113, 114, 115, 116, 117, 118, 119, 120, 121, 122, 123, 124, 125, 126, 127, 128, 129, 130, 131, 132, 133, 134, 135, 136, 137, 138, 139, 140, 141, 142, 143, 144, 145, 146, 147, 148, 149, 150, 151, 152, 153, 154, 155, 156, 157, 158, 159, 160, 161, 162, 163, 164, 165, 166, 167, 168, 169, 170, 171, 172, 173, 174, 175, 176, 177, 178, 179, 180, 181, 182, 183, 184, 185, 186, 187, 188, 189, 190, 191, 192, 193, 194, 195, 196, 197, 198, 199, 200, 201, 202, 203, 204, 205, 206, 207, 208, 209, 210, 211, 212, 213, 214, 215, 216, 217, 218, 219, 220, 221, 222, 223, 224, 225, 226, 227, 228, 229, 230, 231, 232, 233, 234, 235, 236, 237, 238, 239, 240, 241, 242, 243, 244, 245, 246, 247, 248, 249, 250, 251, 252, 253, 254, 255, 256, 257, 258, 259, 260, 261, 262, 263, 264, 265, 266, 267, 268, 269, 270, 271, 272, 273, 274, 275, 276, 277, 278, 279, 280, 281, 282, 283, 284, 285, 286, 287, 288, 289, 290, 291, 292, 293, 294, 295, 296, 297, 298, 299, 300, 301, 302, 303, 304, 305, 306, 307, 308, 309, 310, 311, 312, 313, 314, 315, 316, 317, 318, 319, 320, 321, 322, 323, 324, 325, 326, 327, 328, 329, 330],
      "AcquisitionTime": ["113923.442500", "113924.447500", "113925.450000", "113926.455000", "113927.457500", "113928.462500", "113929.467500", "113930.470000", "113931.475000", "113932.477500", "113933.482500", "113934.487500", "113935.490000", "113936.495000", "113937.500000", "113938.502500", "113939.507500", "113940.510000", "113941.515000", "113942.520000", "113943.522500", "113944.527500", "113945.530000", "113946.535000", "113947.540000", "113948.542500", "113949.547500", "113950.550000", "113951.555000", "113952.560000", "113953.562500", "113954.567500", "113955.570000", "113956.575000", "113957.580000", "113958.582500", "113959.587500", "114000.590000", "114001.595000", "114002.600000", "114003.602500", "114004.607500", "114005.610000", "114006.615000", "114007.620000", "114008.622500", "114009.627500", "114010.632500", "114011.635000", "114012.640000", "114013.642500", "114014.647500", "114015.652500", "114016.655000", "114017.660000", "114018.662500", "114019.667500", "114020.672500", "114021.675000", "114022.680000", "114023.682500", "114024.687500", "114025.692500", "114026.695000", "114027.700000", "114028.702500", "114029.707500", "114030.712500", "114031.715000", "114032.720000", "114033.722500", "114034.727500", "114035.732500", "114036.735000", "114037.740000", "114038.742500", "114039.747500", "114040.752500", "114041.755000", "114042.760000", "114043.765000", "114044.767500", "114045.772500", "114046.775000", "114047.780000", "114048.785000", "114049.787500", "114050.792500", "114051.795000", "114052.800000", "114053.805000", "114054.807500", "114055.812500", "114056.815000", "114057.820000", "114058.825000", "114059.827500", "114100.832500", "114101.835000", "114102.840000", "114103.845000", "114104.847500", "114105.852500", "114106.855000", "114107.860000", "114108.865000", "114109.867500", "114110.872500", "114111.877500", "114112.880000", "114113.885000", "114114.887500", "114115.892500", "114116.897500", "114117.900000", "114118.905000", "114119.907500", "114120.912500", "114121.917500", "114122.920000", "114123.925000", "114124.927500", "114125.932500", "114126.937500", "114127.940000", "114128.945000", "114129.947500", "114130.952500", "114131.957500", "114132.960000", "114133.965000", "114134.967500", "114135.972500", "114136.977500", "114137.980000", "114138.985000", "114139.987500", "114140.992500", "114141.997500", "114143.000000", "114144.005000", "114145.010000", "114146.012500", "114147.017500", "114148.020000", "114149.025000", "114150.030000", "114151.032500", "114152.037500", "114153.040000", "114154.045000", "114155.050000", "114156.052500", "114157.057500", "114158.060000", "114159.065000", "114200.070000", "114201.072500", "114202.077500", "114203.080000", "114204.085000", "114205.090000", "114206.092500", "114207.097500", "114208.100000", "114209.105000", "114210.110000", "114211.112500", "114212.117500", "114213.120000", "114214.125000", "114215.130000", "114216.132500", "114217.137500", "114218.142500", "114219.145000", "114220.150000", "114221.152500", "114222.157500", "114223.162500", "114224.165000", "114225.170000", "114226.172500", "114227.177500", "114228.182500", "114229.185000", "114230.190000", "114231.192500", "114232.197500", "114233.202500", "114234.205000", "114235.210000", "114236.212500", "114237.217500", "114238.222500", "114239.225000", "114240.230000", "114241.232500", "114242.237500", "114243.242500", "114244.245000", "114245.250000", "114246.255000", "114247.257500", "114248.262500", "114249.265000", "114250.270000", "114251.275000", "114252.277500", "114253.282500", "114254.285000", "114255.290000", "114256.295000", "114257.297500", "114258.302500", "114259.305000", "114300.310000", "114301.315000", "114302.317500", "114303.322500", "114304.325000", "114305.330000", "114306.335000", "114307.337500", "114308.342500", "114309.345000", "114310.350000", "114311.355000", "114312.357500", "114313.362500", "114314.365000", "114315.370000", "114316.375000", "114317.377500", "114318.382500", "114319.387500", "114320.390000", "114321.395000", "114322.397500", "114323.402500", "114324.407500", "114325.410000", "114326.415000", "114327.417500", "114328.422500", "114329.427500", "114330.430000", "114331.435000", "114332.437500", "114333.442500", "114334.447500", "114335.450000", "114336.455000", "114337.457500", "114338.462500", "114339.467500", "114340.470000", "114341.475000", "114342.477500", "114343.482500", "114344.487500", "114345.490000", "114346.495000", "114347.500000", "114348.502500", "114349.507500", "114350.510000", "114351.515000", "114352.520000", "114353.522500", "114354.527500", "114355.530000", "114356.535000", "114357.540000", "114358.542500", "114359.547500", "114400.550000", "114401.555000", "114402.560000", "114403.562500", "114404.567500", "114405.570000", "114406.575000", "114407.580000", "114408.582500", "114409.587500", "114410.590000", "114411.595000", "114412.600000", "114413.602500", "114414.607500", "114415.610000", "114416.615000", "114417.620000", "114418.622500", "114419.627500", "114420.632500", "114421.635000", "114422.640000", "114423.642500", "114424.647500", "114425.652500", "114426.655000", "114427.660000", "114428.662500", "114429.667500", "114430.672500", "114431.675000", "114432.680000", "114433.682500", "114434.687500", "114435.692500", "114436.695000", "114437.700000", "114438.702500", "114439.707500", "114440.712500", "114441.715000", "114442.720000", "114443.722500", "114444.727500", "114445.732500", "114446.735000", "114447.740000", "114448.742500", "114449.747500", "114450.752500", "114451.755000", "114452.760000", "114453.765000"],
      "ContentTime": ["113957.937000", "113957.937000", "113957.937000", "113957.937000", "113957.937000", "113957.953000", "113957.953000", "113957.953000", "113957.953000", "113957.953000", "113957.968000", "113957.968000", "113957.968000", "113957.968000", "113957.968000", "113957.968000", "113957.968000", "113957.984000", "113957.984000", "113957.984000", "113957.984000", "113957.984000", "113957.984000", "113958.000000", "113958.000000", "113958.000000", "113958.000000", "113958.000000", "113958.000000", "113958.000000", "113958.015000", "113958.015000", "113958.015000", "114017.906000", "114017.906000", "114017.906000", "114017.906000", "114017.906000", "114017.906000", "114017.921000", "114017.921000", "114017.921000", "114017.921000", "114017.921000", "114017.937000", "114017.937000", "114017.937000", "114017.937000", "114017.937000", "114017.953000", "114017.953000", "114017.953000", "114017.953000", "114037.906000", "114037.906000", "114037.906000", "114037.906000", "114037.906000", "114037.906000", "114037.921000", "114037.921000", "114037.921000", "114037.921000", "114037.921000", "114037.937000", "114037.937000", "114037.937000", "114037.937000", "114037.937000", "114037.937000", "114037.937000", "114037.953000", "114037.953000", "114057.906000", "114057.906000", "114057.906000", "114057.906000", "114057.906000", "114057.906000", "114057.921000", "114057.921000", "114057.921000", "114057.921000", "114057.937000", "114057.937000", "114057.937000", "114057.937000", "114057.937000", "114057.937000", "114057.937000", "114057.937000", "114057.953000", "114057.953000", "114117.906000", "114117.906000", "114117.906000", "114117.906000", "114117.906000", "114117.906000", "114117.906000", "114117.921000", "114117.921000", "114117.921000", "114117.921000", "114117.921000", "114117.921000", "114117.921000", "114117.937000", "114117.937000", "114117.937000", "114117.937000", "114117.937000", "114117.937000", "114137.906000", "114137.906000", "114137.906000", "114137.906000", "114137.921000", "114137.921000", "114137.921000", "114137.921000", "114137.921000", "114137.921000", "114137.921000", "114137.921000", "114137.937000", "114137.937000", "114137.937000", "114137.937000", "114137.953000", "114137.953000", "114137.953000", "114137.953000", "114157.906000", "114157.906000", "114157.906000", "114157.906000", "114157.906000", "114157.906000", "114157.921000", "114157.921000", "114157.921000", "114157.921000", "114157.921000", "114157.921000", "114157.921000", "114157.937000", "114157.937000", "114157.937000", "114157.937000", "114157.937000", "114157.937000", "114157.937000", "114217.906000", "114217.906000", "114217.906000", "114217.921000", "114217.921000", "114217.937000", "114217.937000", "114217.953000", "114217.953000", "114217.953000", "114217.953000", "114217.953000", "114217.953000", "114217.953000", "114217.953000", "114217.968000", "114217.968000", "114217.968000", "114217.968000", "114217.968000", "114237.906000", "114237.906000", "114237.906000", "114237.906000", "114237.906000", "114237.906000", "114237.921000", "114237.921000", "114237.921000", "114237.921000", "114237.921000", "114237.921000", "114237.921000", "114237.921000", "114237.937000", "114237.937000", "114237.937000", "114237.937000", "114237.937000", "114237.953000", "114257.906000", "114257.906000", "114257.906000", "114257.906000", "114257.906000", "114257.906000", "114257.921000", "114257.921000", "114257.921000", "114257.921000", "114257.921000", "114257.921000", "114257.921000", "114257.921000", "114257.937000", "114257.937000", "114257.937000", "114257.937000", "114257.937000", "114257.937000", "114317.906000", "114317.906000", "114317.906000", "114317.906000", "114317.906000", "114317.906000", "114317.921000", "114317.921000", "114317.921000", "114317.921000", "114317.921000", "114317.921000", "114317.921000", "114317.937000", "114317.937000", "114317.937000", "114317.937000", "114317.937000", "114317.937000", "114317.937000", "114337.906000", "114337.906000", "114337.906000", "114337.906000", "114337.906000", "114337.906000", "114337.921000", "114337.921000", "114337.921000", "114337.921000", "114337.921000", "114337.921000", "114337.921000", "114337.921000", "114337.937000", "114337.937000", "114337.937000", "114337.937000", "114337.937000", "114337.937000", "114357.906000", "114357.906000", "114357.906000", "114357.906000", "114357.906000", "114357.906000", "114357.921000", "114357.921000", "114357.921000", "114357.921000", "114357.921000", "114357.921000", "114357.937000", "114357.937000", "114357.937000", "114357.937000", "114357.937000", "114357.937000", "114357.937000", "114357.937000", "114417.906000", "114417.906000", "114417.906000", "114417.906000", "114417.906000", "114417.906000", "114417.921000", "114417.921000", "114417.921000", "114417.921000", "114417.921000", "114417.921000", "114417.921000", "114417.921000", "114417.937000", "114417.937000", "114417.937000", "114417.937000", "114417.937000", "114417.937000", "114437.906000", "114437.906000", "114437.906000", "114437.906000", "114437.921000", "114437.921000", "114437.921000", "114437.921000", "114437.921000", "114437.921000", "114437.921000", "114437.937000", "114437.937000", "114437.937000", "114437.937000", "114437.937000", "114437.937000", "114437.937000", "114437.953000", "114437.953000", "114459.609000", "114459.609000", "114459.609000", "114459.609000", "114459.609000", "114459.609000", "114459.609000", "114459.625000", "114459.625000", "114459.625000", "114459.625000", "114459.625000", "114459.625000", "114459.625000", "114459.640000", "114459.640000", "114459.640000"],
      "InstanceCreationTime": ["113957.937000", "113957.937000", "113957.937000", "113957.937000", "113957.937000", "113957.953000", "113957.953000", "113957.953000", "113957.953000", "113957.953000", "113957.968000", "113957.968000", "113957.968000", "113957.968000", "113957.968000", "113957.968000", "113957.968000", "113957.984000", "113957.984000", "113957.984000", "113957.984000", "113957.984000", "113957.984000", "113958.000000", "113958.000000", "113958.000000", "113958.000000", "113958.000000", "113958.000000", "113958.000000", "113958.015000", "113958.015000", "113958.015000", "114017.906000", "114017.906000", "114017.906000", "114017.906000", "114017.906000", "114017.906000", "114017.921000", "114017.921000", "114017.921000", "114017.921000", "114017.921000", "114017.937000", "114017.937000", "114017.937000", "114017.937000", "114017.937000", "114017.953000", "114017.953000", "114017.953000", "114017.953000", "114037.906000", "114037.906000", "114037.906000", "114037.906000", "114037.906000", "114037.906000", "114037.921000", "114037.921000", "114037.921000", "114037.921000", "114037.921000", "114037.937000", "114037.937000", "114037.937000", "114037.937000", "114037.937000", "114037.937000", "114037.937000", "114037.953000", "114037.953000", "114057.906000", "114057.906000", "114057.906000", "114057.906000", "114057.906000", "114057.906000", "114057.921000", "114057.921000", "114057.921000", "114057.921000", "114057.937000", "114057.937000", "114057.937000", "114057.937000", "114057.937000", "114057.937000", "114057.937000", "114057.937000", "114057.953000", "114057.953000", "114117.906000", "114117.906000", "114117.906000", "114117.906000", "114117.906000", "114117.906000", "114117.906000", "114117.921000", "114117.921000", "114117.921000", "114117.921000", "114117.921000", "114117.921000", "114117.921000", "114117.937000", "114117.937000", "114117.937000", "114117.937000", "114117.937000", "114117.937000", "114137.906000", "114137.906000", "114137.906000", "114137.906000", "114137.921000", "114137.921000", "114137.921000", "114137.921000", "114137.921000", "114137.921000", "114137.921000", "114137.921000", "114137.937000", "114137.937000", "114137.937000", "114137.937000", "114137.953000", "114137.953000", "114137.953000", "114137.953000", "114157.906000", "114157.906000", "114157.906000", "114157.906000", "114157.906000", "114157.906000", "114157.921000", "114157.921000", "114157.921000", "114157.921000", "114157.921000", "114157.921000", "114157.921000", "114157.937000", "114157.937000", "114157.937000", "114157.937000", "114157.937000", "114157.937000", "114157.937000", "114217.906000", "114217.906000", "114217.906000", "114217.921000", "114217.921000", "114217.937000", "114217.937000", "114217.953000", "114217.953000", "114217.953000", "114217.953000", "114217.953000", "114217.953000", "114217.953000", "114217.953000", "114217.968000", "114217.968000", "114217.968000", "114217.968000", "114217.968000", "114237.906000", "114237.906000", "114237.906000", "114237.906000", "114237.906000", "114237.906000", "114237.921000", "114237.921000", "114237.921000", "114237.921000", "114237.921000", "114237.921000", "114237.921000", "114237.921000", "114237.937000", "114237.937000", "114237.937000", "114237.937000", "114237.937000", "114237.953000", "114257.906000", "114257.906000", "114257.906000", "114257.906000", "114257.906000", "114257.906000", "114257.921000", "114257.921000", "114257.921000", "114257.921000", "114257.921000", "114257.921000", "114257.921000", "114257.921000", "114257.937000", "114257.937000", "114257.937000", "114257.937000", "114257.937000", "114257.937000", "114317.906000", "114317.906000", "114317.906000", "114317.906000", "114317.906000", "114317.906000", "114317.921000", "114317.921000", "114317.921000", "114317.921000", "114317.921000", "114317.921000", "114317.921000", "114317.937000", "114317.937000", "114317.937000", "114317.937000", "114317.937000", "114317.937000", "114317.937000", "114337.906000", "114337.906000", "114337.906000", "114337.906000", "114337.906000", "114337.906000", "114337.921000", "114337.921000", "114337.921000", "114337.921000", "114337.921000", "114337.921000", "114337.921000", "114337.921000", "114337.937000", "114337.937000", "114337.937000", "114337.937000", "114337.937000", "114337.937000", "114357.906000", "114357.906000", "114357.906000", "114357.906000", "114357.906000", "114357.906000", "114357.921000", "114357.921000", "114357.921000", "114357.921000", "114357.921000", "114357.921000", "114357.937000", "114357.937000", "114357.937000", "114357.937000", "114357.937000", "114357.937000", "114357.937000", "114357.937000", "114417.906000", "114417.906000", "114417.906000", "114417.906000", "114417.906000", "114417.906000", "114417.921000", "114417.921000", "114417.921000", "114417.921000", "114417.921000", "114417.921000", "114417.921000", "114417.921000", "114417.937000", "114417.937000", "114417.937000", "114417.937000", "114417.937000", "114417.937000", "114437.906000", "114437.906000", "114437.906000", "114437.906000", "114437.921000", "114437.921000", "114437.921000", "114437.921000", "114437.921000", "114437.921000", "114437.921000", "114437.937000", "114437.937000", "114437.937000", "114437.937000", "114437.937000", "114437.937000", "114437.937000", "114437.953000", "114437.953000", "114459.609000", "114459.609000", "114459.609000", "114459.609000", "114459.609000", "114459.609000", "114459.609000", "114459.625000", "114459.625000", "114459.625000", "114459.625000", "114459.625000", "114459.625000", "114459.625000", "114459.640000", "114459.640000", "114459.640000"],
      "InstanceNumber": [1, 2, 3, 4, 5, 6, 7, 8, 9, 10, 11, 12, 13, 14, 15, 16, 17, 18, 19, 20, 21, 22, 23, 24, 25, 26, 27, 28, 29, 30, 31, 32, 33, 34, 35, 36, 37, 38, 39, 40, 41, 42, 43, 44, 45, 46, 47, 48, 49, 50, 51, 52, 53, 54, 55, 56, 57, 58, 59, 60, 61, 62, 63, 64, 65, 66, 67, 68, 69, 70, 71, 72, 73, 74, 75, 76, 77, 78, 79, 80, 81, 82, 83, 84, 85, 86, 87, 88, 89, 90, 91, 92, 93, 94, 95, 96, 97, 98, 99, 100, 101, 102, 103, 104, 105, 106, 107, 108, 109, 110, 111, 112, 113, 114, 115, 116, 117, 118, 119, 120, 121, 122, 123, 124, 125, 126, 127, 128, 129, 130, 131, 132, 133, 134, 135, 136, 137, 138, 139, 140, 141, 142, 143, 144, 145, 146, 147, 148, 149, 150, 151, 152, 153, 154, 155, 156, 157, 158, 159, 160, 161, 162, 163, 164, 165, 166, 167, 168, 169, 170, 171, 172, 173, 174, 175, 176, 177, 178, 179, 180, 181, 182, 183, 184, 185, 186, 187, 188, 189, 190, 191, 192, 193, 194, 195, 196, 197, 198, 199, 200, 201, 202, 203, 204, 205, 206, 207, 208, 209, 210, 211, 212, 213, 214, 215, 216, 217, 218, 219, 220, 221, 222, 223, 224, 225, 226, 227, 228, 229, 230, 231, 232, 233, 234, 235, 236, 237, 238, 239, 240, 241, 242, 243, 244, 245, 246, 247, 248, 249, 250, 251, 252, 253, 254, 255, 256, 257, 258, 259, 260, 261, 262, 263, 264, 265, 266, 267, 268, 269, 270, 271, 272, 273, 274, 275, 276, 277, 278, 279, 280, 281, 282, 283, 284, 285, 286, 287, 288, 289, 290, 291, 292, 293, 294, 295, 296, 297, 298, 299, 300, 301, 302, 303, 304, 305, 306, 307, 308, 309, 310, 311, 312, 313, 314, 315, 316, 317, 318, 319, 320, 321, 322, 323, 324, 325, 326, 327, 328, 329, 330],
      "LargestImagePixelValue": [2522, 2539, 2516, 2502, 2508, 2531, 2523, 2528, 2498, 2495, 2524, 2483, 2521, 2509, 2486, 2550, 2469, 2489, 2484, 2499, 2511, 2525, 2536, 2539, 2493, 2487, 2527, 2500, 2485, 2497, 2479, 2519, 2546, 2501, 2472, 2492, 2493, 2534, 2504, 2501, 2480, 2505, 2504, 2506, 2453, 2496, 2498, 2510, 2482, 2500, 2483, 2513, 2518, 2478, 2477, 2482, 2428, 2461, 2454, 2453, 2500, 2465, 2483, 2427, 2472, 2523, 2474, 2468, 2420, 2460, 2404, 2477, 2490, 2438, 2486, 2524, 2471, 2481, 2438, 2483, 2472, 2496, 2508, 2473, 2461, 2465, 2516, 2509, 2482, 2501, 2469, 2482, 2490, 2469, 2448, 2454, 2458, 2481, 2498, 2467, 2456, 2483, 2491, 2493, 2439, 2466, 2477, 2443, 2448, 2450, 2474, 2468, 2456, 2485, 2411, 2454, 2475, 2438, 2418, 2445, 2427, 2456, 2412, 2441, 2482, 2464, 2464, 2482, 2486, 2500, 2499, 2467, 2484, 2463, 2480, 2481, 2430, 2481, 2500, 2476, 2494, 2482, 2486, 2481, 2514, 2506, 2522, 2459, 2476, 2483, 2496, 2488, 2433, 2480, 2485, 2493, 2478, 2432, 2470, 2424, 2419, 2453, 2442, 2410, 2450, 2470, 2446, 2456, 2458, 2478, 2473, 2474, 2475, 2468, 2452, 2474, 2506, 2529, 2475, 2502, 2528, 2510, 2489, 2487, 2457, 2491, 2502, 2473, 2451, 2460, 2473, 2422, 2462, 2468, 2510, 2506, 2418, 2471, 2527, 2463, 2484, 2484, 2494, 2472, 2452, 2507, 2467, 2500, 2469, 2461, 2451, 2504, 2440, 2422, 2414, 2473, 2493, 2458, 2474, 2440, 2457, 2507, 2464, 2446, 2430, 2482, 2501, 2512, 2456, 2464, 2465, 2432, 2471, 2445, 2465, 2455, 2489, 2476, 2459, 2473, 2484, 2453, 2472, 2473, 2487, 2467, 2536, 2474, 2487, 2485, 2488, 2503, 2477, 2483, 2455, 2510, 2398, 2459, 2342, 2546, 2461, 2429, 2394, 2367, 2377, 2463, 2397, 2429, 2383, 2464, 2411, 2378, 2405, 2433, 2428, 2420, 2431, 2426, 2388, 2436, 2404, 2395, 2471, 2412, 2485, 2449, 2430, 2355, 2380, 2389, 2402, 2415, 2402, 2415, 2385, 2413, 2445, 2383, 2460, 2419, 2448, 2459, 2444, 2471, 2417, 2418, 2464, 2433, 2420, 2482, 2290, 2362, 2552, 2438, 2394, 2433, 2402, 2428, 2450, 2467, 2406, 2359, 2396, 2373, 2365, 2385, 2408, 2392, 2365, 2446],
      "WindowCenter": [432.0, 432.0, 431.0, 431.0, 431.0, 431.0, 433.0, 433.0, 434.0, 434.0, 434.0, 432.0, 431.0, 431.0, 432.0, 433.0, 432.0, 433.0, 433.0, 433.0, 432.0, 431.0, 431.0, 431.0, 431.0, 431.0, 433.0, 433.0, 432.0, 431.0, 431.0, 432.0, 432.0, 431.0, 431.0, 431.0, 431.0, 431.0, 431.0, 432.0, 431.0, 431.0, 431.0, 431.0, 430.0, 430.0, 430.0, 431.0, 431.0, 431.0, 432.0, 433.0, 434.0, 434.0, 434.0, 434.0, 432.0, 432.0, 431.0, 430.0, 430.0, 430.0, 431.0, 431.0, 432.0, 432.0, 431.0, 431.0, 430.0, 430.0, 430.0, 431.0, 430.0, 431.0, 432.0, 433.0, 433.0, 433.0, 432.0, 432.0, 431.0, 431.0, 430.0, 431.0, 433.0, 434.0, 434.0, 433.0, 432.0, 431.0, 429.0, 429.0, 429.0, 429.0, 429.0, 430.0, 429.0, 429.0, 429.0, 428.0, 427.0, 428.0, 428.0, 430.0, 430.0, 431.0, 430.0, 429.0, 429.0, 429.0, 428.0, 428.0, 428.0, 428.0, 427.0, 428.0, 429.0, 429.0, 429.0, 430.0, 430.0, 430.0, 430.0, 432.0, 432.0, 431.0, 430.0, 429.0, 429.0, 430.0, 431.0, 432.0, 431.0, 432.0, 432.0, 433.0, 433.0, 434.0, 434.0, 434.0, 433.0, 432.0, 432.0, 432.0, 432.0, 432.0, 433.0, 431.0, 431.0, 431.0, 430.0, 430.0, 431.0, 431.0, 433.0, 433.0, 432.0, 431.0, 431.0, 431.0, 431.0, 431.0, 430.0, 430.0, 431.0, 433.0, 434.0, 435.0, 434.0, 433.0, 433.0, 432.0, 432.0, 433.0, 434.0, 433.0, 433.0, 433.0, 433.0, 433.0, 433.0, 433.0, 433.0, 433.0, 433.0, 433.0, 433.0, 433.0, 433.0, 434.0, 433.0, 434.0, 434.0, 433.0, 433.0, 432.0, 431.0, 431.0, 431.0, 431.0, 432.0, 433.0, 434.0, 434.0, 432.0, 431.0, 431.0, 430.0, 431.0, 432.0, 432.0, 434.0, 434.0, 434.0, 434.0, 434.0, 434.0, 433.0, 432.0, 431.0, 431.0, 432.0, 432.0, 432.0, 432.0, 432.0, 432.0, 432.0, 430.0, 429.0, 427.0, 427.0, 428.0, 429.0, 429.0, 430.0, 431.0, 431.0, 430.0, 429.0, 429.0, 430.0, 432.0, 433.0, 433.0, 433.0, 433.0, 431.0, 430.0, 429.0, 429.0, 430.0, 431.0, 431.0, 432.0, 433.0, 432.0, 432.0, 431.0, 431.0, 429.0, 429.0, 430.0, 430.0, 430.0, 432.0, 431.0, 431.0, 430.0, 431.0, 430.0, 430.0, 430.0, 430.0, 429.0, 428.0, 429.0, 428.0, 428.0, 430.0, 429.0, 430.0, 431.0, 430.0, 431.0, 431.0, 429.0, 428.0, 429.0, 430.0, 431.0, 431.0, 430.0, 430.0, 429.0, 428.0, 429.0, 427.0, 427.0, 427.0, 428.0, 428.0, 428.0, 428.0, 428.0, 427.0, 428.0, 428.0, 429.0, 428.0, 429.0, 429.0, 433.0, 434.0, 434.0, 434.0, 432.0, 432.0, 431.0, 429.0, 428.0, 427.0, 428.0, 428.0, 429.0, 428.0, 429.0, 429.0, 429.0, 430.0],
