{
  "AcquisitionMatrixPE": 104,
  "AcquisitionNumber": 1,
  "AcquisitionTime": "12:15:30.702500",
  "BandwidthPerPixelPhaseEncode": 43.054,
  "BaseResolution": 104,
  "CoilString": "C:E1_2",
  "ConversionSoftware": "dcm2niix",
  "ConversionSoftwareVersion": "v1.0.20191031",
  "DerivedVendorReportedEchoSpacing": 0.000669999,
  "DeviceSerialNumber": "18932",
  "DwellTime": 2.8e-06,
  "EchoTime": 0.02,
  "EffectiveEchoSpacing": 0.000223333,
  "FlipAngle": 30,
  "ImageComments": "Unaliased_MB2_PE2",
  "ImageOrientationPatientDICOM": [1, 2e-16, 0, -2e-16, 0.965926, -0.258819],
  "ImageType": [
    "ORIGINAL",
    "PRIMARY",
    "M",
    "MB",
    "ND",
    "MOSAIC"
],
  "ImagingFrequency": 297.229,
  "InPlanePhaseEncodingDirectionDICOM": "COL",
  "InstitutionAddress": "Richmond_Street_North_1151_London_409EF2_Ontario_CA_N6A_5B7",
  "InstitutionName": "Robarts_Reserch_Institute",
  "InstitutionalDepartmentName": "Department",
  "MRAcquisitionType": "2D",
  "MagneticFieldStrength": 6.98,
  "Manufacturer": "Siemens",
  "ManufacturersModelName": "Investigational_Device_7T",
  "Modality": "MR",
  "MultibandAccelerationFactor": 2,
  "ParallelReductionFactorInPlane": 3,
  "PartialFourier": 0.875,
  "PatientPosition": "HFS",
  "PercentPhaseFOV": 100,
  "PhaseEncodingDirection": "j-",
  "PhaseEncodingSteps": 91,
  "PhaseResolution": 1,
  "PixelBandwidth": 1717,
  "ProcedureStepDescription": "Diedrichsen_SeqRep4",
  "ProtocolName": "mbep2d_bold_mb2_p3_AP_2iso",
  "PulseSequenceDetails": "%CustomerSeq%_cmrr_mbep2d_bold",
  "ReceiveCoilName": "CFMM_8Tx32Rx",
  "ReconMatrixPE": 104,
  "RefLinesPE": 36,
  "RepetitionTime": 1,
  "ScanOptions": "PFP_FS",
  "ScanningSequence": "EP",
  "SequenceName": "epfid2d1_104",
  "SequenceVariant": "SK_SS",
  "SeriesDescription": "mbep2d_bold_mb2_p3_AP_2iso",
  "SeriesNumber": 26,
  "ShimSetting": [17, 2079, 27, 1472, -66, -420, 219, -110],
  "SliceThickness": 2,
  "SliceTiming": [0, 0.23, 0.4575, 0.685, 0.9125, 0.1375, 0.365, 0.5925, 0.8225, 0.0475, 0.275, 0.5025, 0.73, 0.9575, 0.1825, 0.4125, 0.64, 0.8675, 0.0925, 0.32, 0.5475, 0.775, 0, 0.23, 0.4575, 0.685, 0.9125, 0.1375, 0.365, 0.5925, 0.8225, 0.0475, 0.275, 0.5025, 0.73, 0.9575, 0.1825, 0.4125, 0.64, 0.8675, 0.0925, 0.32, 0.5475, 0.775],
  "SoftwareVersions": "syngo_MR_B17",
  "SpacingBetweenSlices": 2,
  "StationName": "MASTER",
  "TaskName": "dsp",
  "TotalReadoutTime": 0.0230033,
  "TxRefAmp": 112.832,
  "dcmmeta_affine": [
    [-2.0, -4.000000067449534e-16, 1.035276159788667e-16, 105.4527816772461],
    [-4.000000067449534e-16, 1.9318516254425049, -0.517638087272644, -109.18914794921875],
    [0.0, 0.517638087272644, 1.9318516254425049, -62.17266082763672],
    [0.0, 0.0, 0.0, 1.0]
],
  "dcmmeta_reorient_transform": [
    [0.0, -1.0, 0.0, 103.0],
    [1.0, 0.0, 0.0, 0.0],
    [0.0, 0.0, 1.0, 0.0],
    [0.0, 0.0, 0.0, 1.0]
],
  "dcmmeta_shape": [104, 104, 44, 330],
  "dcmmeta_slice_dim": 2,
  "dcmmeta_version": 0.6,
  "global": {
    "const": {
      "AcquisitionMatrix": [104, 0, 0, 104],
      "AngioFlag": "N",
      "BitsAllocated": 16,
      "BitsStored": 12,
      "Columns": 728,
      "EchoNumbers": 1,
      "EchoTime": 20.0,
      "EchoTrainLength": 1,
      "FlipAngle": 30.0,
      "HighBit": 11,
      "ImageOrientationPatient": [1.0, 2e-16, 0.0, -2e-16, 0.9659258278573, -0.2588190392498],
      "ImagePositionPatient": [-729.45278453827, -692.52928595953, 152.64714350843],
      "ImageType": [
        "ORIGINAL",
        "PRIMARY",
        "M",
        "MB",
        "ND",
        "MOSAIC"
],
      "ImagedNucleus": "1H",
      "ImagingFrequency": 297.228834,
      "InPlanePhaseEncodingDirection": "COL",
      "MRAcquisitionType": "2D",
      "MagneticFieldStrength": 6.98,
      "Manufacturer": "SIEMENS",
      "ManufacturerModelName": "Investigational_Device_7T",
      "Modality": "MR",
      "NumberOfAverages": 1.0,
      "NumberOfPhaseEncodingSteps": 91,
      "PercentPhaseFieldOfView": 100.0,
      "PercentSampling": 100.0,
      "PerformedProcedureStepStartTime": "112012.734000",
      "PhotometricInterpretation": "MONOCHROME2",
      "PixelBandwidth": 1717.0,
      "PixelRepresentation": 0,
      "PixelSpacing": [2.0, 2.0],
      "ProtocolName": "mbep2d_bold_mb2_p3_AP 2iso",
      "RepetitionTime": 1000.0,
      "Rows": 728,
      "SAR": 0.0,
      "SamplesPerPixel": 1,
      "ScanOptions": [
        "PFP",
        "FS"
],
      "ScanningSequence": "EP",
      "SequenceName": "epfid2d1_104",
      "SequenceVariant": [
        "SK",
        "SS"
],
      "SeriesDescription": "mbep2d_bold_mb2_p3_AP 2iso",
      "SeriesNumber": 26,
      "SeriesTime": "121605.312000",
      "SliceLocation": -31.793945980969,
      "SliceThickness": 2.0,
      "SmallestImagePixelValue": 0,
      "SoftwareVersions": "syngo MR B17",
      "SpacingBetweenSlices": 2.0000000119034,
      "SpecificCharacterSet": "ISO_IR 100",
      "StudyID": "1",
      "StudyTime": "112012.671000",
      "TransmitCoilName": "CFMM_8Tx32Rx",
      "VariableFlipAngleFlag": "N",
      "WindowCenterWidthExplanation": "Algo1",
      "dBdt": 0.0},
    "slices": {}
  },
  "time": {
    "samples": {
      "AcquisitionNumber": [1, 2, 3, 4, 5, 6, 7, 8, 9, 10, 11, 12, 13, 14, 15, 16, 17, 18, 19, 20, 21, 22, 23, 24, 25, 26, 27, 28, 29, 30, 31, 32, 33, 34, 35, 36, 37, 38, 39, 40, 41, 42, 43, 44, 45, 46, 47, 48, 49, 50, 51, 52, 53, 54, 55, 56, 57, 58, 59, 60, 61, 62, 63, 64, 65, 66, 67, 68, 69, 70, 71, 72, 73, 74, 75, 76, 77, 78, 79, 80, 81, 82, 83, 84, 85, 86, 87, 88, 89, 90, 91, 92, 93, 94, 95, 96, 97, 98, 99, 100, 101, 102, 103, 104, 105, 106, 107, 108, 109, 110, 111, 112, 113, 114, 115, 116, 117, 118, 119, 120, 121, 122, 123, 124, 125, 126, 127, 128, 129, 130, 131, 132, 133, 134, 135, 136, 137, 138, 139, 140, 141, 142, 143, 144, 145, 146, 147, 148, 149, 150, 151, 152, 153, 154, 155, 156, 157, 158, 159, 160, 161, 162, 163, 164, 165, 166, 167, 168, 169, 170, 171, 172, 173, 174, 175, 176, 177, 178, 179, 180, 181, 182, 183, 184, 185, 186, 187, 188, 189, 190, 191, 192, 193, 194, 195, 196, 197, 198, 199, 200, 201, 202, 203, 204, 205, 206, 207, 208, 209, 210, 211, 212, 213, 214, 215, 216, 217, 218, 219, 220, 221, 222, 223, 224, 225, 226, 227, 228, 229, 230, 231, 232, 233, 234, 235, 236, 237, 238, 239, 240, 241, 242, 243, 244, 245, 246, 247, 248, 249, 250, 251, 252, 253, 254, 255, 256, 257, 258, 259, 260, 261, 262, 263, 264, 265, 266, 267, 268, 269, 270, 271, 272, 273, 274, 275, 276, 277, 278, 279, 280, 281, 282, 283, 284, 285, 286, 287, 288, 289, 290, 291, 292, 293, 294, 295, 296, 297, 298, 299, 300, 301, 302, 303, 304, 305, 306, 307, 308, 309, 310, 311, 312, 313, 314, 315, 316, 317, 318, 319, 320, 321, 322, 323, 324, 325, 326, 327, 328, 329, 330],
      "AcquisitionTime": ["121530.702500", "121531.707500", "121532.712500", "121533.715000", "121534.720000", "121535.722500", "121536.727500", "121537.732500", "121538.735000", "121539.740000", "121540.742500", "121541.747500", "121542.752500", "121543.755000", "121544.760000", "121545.762500", "121546.767500", "121547.772500", "121548.775000", "121549.780000", "121550.782500", "121551.787500", "121552.792500", "121553.795000", "121554.800000", "121555.802500", "121556.807500", "121557.812500", "121558.815000", "121559.820000", "121600.822500", "121601.827500", "121602.832500", "121603.835000", "121604.840000", "121605.845000", "121606.847500", "121607.852500", "121608.855000", "121609.860000", "121610.865000", "121611.867500", "121612.872500", "121613.875000", "121614.880000", "121615.885000", "121616.887500", "121617.892500", "121618.895000", "121619.900000", "121620.905000", "121621.907500", "121622.912500", "121623.915000", "121624.920000", "121625.925000", "121626.927500", "121627.932500", "121628.935000", "121629.940000", "121630.945000", "121631.947500", "121632.952500", "121633.957500", "121634.960000", "121635.965000", "121636.967500", "121637.972500", "121638.977500", "121639.980000", "121640.985000", "121641.987500", "121642.992500", "121643.997500", "121645.000000", "121646.005000", "121647.007500", "121648.012500", "121649.017500", "121650.020000", "121651.025000", "121652.027500", "121653.032500", "121654.037500", "121655.040000", "121656.045000", "121657.047500", "121658.052500", "121659.057500", "121700.060000", "121701.065000", "121702.067500", "121703.072500", "121704.077500", "121705.080000", "121706.085000", "121707.090000", "121708.092500", "121709.097500", "121710.100000", "121711.105000", "121712.110000", "121713.112500", "121714.117500", "121715.120000", "121716.125000", "121717.130000", "121718.132500", "121719.137500", "121720.140000", "121721.145000", "121722.150000", "121723.152500", "121724.157500", "121725.160000", "121726.165000", "121727.170000", "121728.172500", "121729.177500", "121730.180000", "121731.185000", "121732.190000", "121733.192500", "121734.197500", "121735.200000", "121736.205000", "121737.210000", "121738.212500", "121739.217500", "121740.222500", "121741.225000", "121742.230000", "121743.232500", "121744.237500", "121745.242500", "121746.245000", "121747.250000", "121748.252500", "121749.257500", "121750.262500", "121751.265000", "121752.270000", "121753.272500", "121754.277500", "121755.282500", "121756.285000", "121757.290000", "121758.292500", "121759.297500", "121800.302500", "121801.305000", "121802.310000", "121803.312500", "121804.317500", "121805.322500", "121806.325000", "121807.330000", "121808.335000", "121809.337500", "121810.342500", "121811.345000", "121812.350000", "121813.355000", "121814.357500", "121815.362500", "121816.365000", "121817.370000", "121818.375000", "121819.377500", "121820.382500", "121821.385000", "121822.390000", "121823.395000", "121824.397500", "121825.402500", "121826.405000", "121827.410000", "121828.415000", "121829.417500", "121830.422500", "121831.425000", "121832.430000", "121833.435000", "121834.437500", "121835.442500", "121836.445000", "121837.450000", "121838.455000", "121839.457500", "121840.462500", "121841.467500", "121842.470000", "121843.475000", "121844.477500", "121845.482500", "121846.487500", "121847.490000", "121848.495000", "121849.497500", "121850.502500", "121851.507500", "121852.510000", "121853.515000", "121854.517500", "121855.522500", "121856.527500", "121857.530000", "121858.535000", "121859.537500", "121900.542500", "121901.547500", "121902.550000", "121903.555000", "121904.557500", "121905.562500", "121906.567500", "121907.570000", "121908.575000", "121909.580000", "121910.582500", "121911.587500", "121912.590000", "121913.595000", "121914.600000", "121915.602500", "121916.607500", "121917.610000", "121918.615000", "121919.620000", "121920.622500", "121921.627500", "121922.630000", "121923.635000", "121924.640000", "121925.642500", "121926.647500", "121927.650000", "121928.655000", "121929.660000", "121930.662500", "121931.667500", "121932.670000", "121933.675000", "121934.680000", "121935.682500", "121936.687500", "121937.690000", "121938.695000", "121939.700000", "121940.702500", "121941.707500", "121942.712500", "121943.715000", "121944.720000", "121945.722500", "121946.727500", "121947.732500", "121948.735000", "121949.740000", "121950.742500", "121951.747500", "121952.752500", "121953.755000", "121954.760000", "121955.762500", "121956.767500", "121957.772500", "121958.775000", "121959.780000", "122000.782500", "122001.787500", "122002.792500", "122003.795000", "122004.800000", "122005.802500", "122006.807500", "122007.812500", "122008.815000", "122009.820000", "122010.822500", "122011.827500", "122012.832500", "122013.835000", "122014.840000", "122015.845000", "122016.847500", "122017.852500", "122018.855000", "122019.860000", "122020.865000", "122021.867500", "122022.872500", "122023.875000", "122024.880000", "122025.885000", "122026.887500", "122027.892500", "122028.895000", "122029.900000", "122030.905000", "122031.907500", "122032.912500", "122033.915000", "122034.920000", "122035.925000", "122036.927500", "122037.932500", "122038.935000", "122039.940000", "122040.945000", "122041.947500", "122042.952500", "122043.957500", "122044.960000", "122045.965000", "122046.967500", "122047.972500", "122048.977500", "122049.980000", "122050.985000", "122051.987500", "122052.992500", "122053.997500", "122055.000000", "122056.005000", "122057.007500", "122058.012500", "122059.017500", "122100.020000", "122101.025000"],
      "ContentTime": ["121605.312000", "121605.328000", "121605.328000", "121605.328000", "121605.328000", "121605.328000", "121605.328000", "121605.328000", "121605.343000", "121605.343000", "121605.343000", "121605.343000", "121605.343000", "121605.343000", "121605.343000", "121605.359000", "121605.359000", "121605.359000", "121605.375000", "121605.375000", "121605.375000", "121605.375000", "121605.375000", "121605.375000", "121605.390000", "121605.390000", "121605.390000", "121605.390000", "121605.390000", "121605.390000", "121605.390000", "121605.406000", "121605.406000", "121625.281000", "121625.281000", "121625.281000", "121625.296000", "121625.296000", "121625.296000", "121625.296000", "121625.296000", "121625.296000", "121625.312000", "121625.312000", "121625.312000", "121625.312000", "121625.312000", "121625.312000", "121625.328000", "121625.328000", "121625.328000", "121625.328000", "121625.328000", "121645.281000", "121645.281000", "121645.281000", "121645.281000", "121645.281000", "121645.281000", "121645.296000", "121645.296000", "121645.296000", "121645.296000", "121645.296000", "121645.312000", "121645.312000", "121645.312000", "121645.312000", "121645.312000", "121645.312000", "121645.312000", "121645.328000", "121645.328000", "121705.281000", "121705.281000", "121705.281000", "121705.281000", "121705.281000", "121705.281000", "121705.296000", "121705.296000", "121705.296000", "121705.296000", "121705.296000", "121705.296000", "121705.312000", "121705.312000", "121705.312000", "121705.312000", "121705.312000", "121705.312000", "121705.312000", "121705.328000", "121725.281000", "121725.281000", "121725.281000", "121725.281000", "121725.281000", "121725.281000", "121725.296000", "121725.296000", "121725.296000", "121725.296000", "121725.296000", "121725.296000", "121725.296000", "121725.296000", "121725.312000", "121725.312000", "121725.312000", "121725.312000", "121725.312000", "121725.328000", "121745.281000", "121745.281000", "121745.281000", "121745.281000", "121745.281000", "121745.281000", "121745.296000", "121745.296000", "121745.296000", "121745.296000", "121745.296000", "121745.296000", "121745.296000", "121745.312000", "121745.312000", "121745.312000", "121745.312000", "121745.312000", "121745.312000", "121745.312000", "121805.281000", "121805.281000", "121805.281000", "121805.281000", "121805.281000", "121805.296000", "121805.296000", "121805.296000", "121805.296000", "121805.296000", "121805.312000", "121805.312000", "121805.312000", "121805.312000", "121805.312000", "121805.312000", "121805.312000", "121805.312000", "121805.328000", "121805.328000", "121825.281000", "121825.281000", "121825.281000", "121825.281000", "121825.281000", "121825.281000", "121825.296000", "121825.296000", "121825.296000", "121825.296000", "121825.296000", "121825.296000", "121825.312000", "121825.312000", "121825.312000", "121825.312000", "121825.312000", "121825.312000", "121825.312000", "121825.328000", "121845.281000", "121845.281000", "121845.281000", "121845.281000", "121845.296000", "121845.296000", "121845.296000", "121845.296000", "121845.296000", "121845.296000", "121845.296000", "121845.312000", "121845.312000", "121845.312000", "121845.312000", "121845.312000", "121845.312000", "121845.312000", "121845.328000", "121845.328000", "121905.281000", "121905.281000", "121905.281000", "121905.281000", "121905.281000", "121905.281000", "121905.296000", "121905.296000", "121905.296000", "121905.296000", "121905.296000", "121905.296000", "121905.296000", "121905.312000", "121905.312000", "121905.312000", "121905.312000", "121905.312000", "121905.312000", "121905.312000", "121925.281000", "121925.281000", "121925.281000", "121925.281000", "121925.281000", "121925.281000", "121925.296000", "121925.296000", "121925.296000", "121925.296000", "121925.312000", "121925.312000", "121925.312000", "121925.312000", "121925.312000", "121925.312000", "121925.312000", "121925.328000", "121925.328000", "121925.328000", "121945.281000", "121945.281000", "121945.281000", "121945.281000", "121945.281000", "121945.281000", "121945.296000", "121945.296000", "121945.296000", "121945.296000", "121945.296000", "121945.296000", "121945.296000", "121945.312000", "121945.312000", "121945.312000", "121945.312000", "121945.312000", "121945.328000", "121945.328000", "122005.281000", "122005.281000", "122005.281000", "122005.281000", "122005.281000", "122005.281000", "122005.296000", "122005.296000", "122005.296000", "122005.296000", "122005.296000", "122005.296000", "122005.296000", "122005.296000", "122005.312000", "122005.312000", "122005.312000", "122005.312000", "122005.328000", "122005.328000", "122025.281000", "122025.281000", "122025.281000", "122025.281000", "122025.281000", "122025.281000", "122025.296000", "122025.296000", "122025.296000", "122025.296000", "122025.296000", "122025.296000", "122025.296000", "122025.296000", "122025.312000", "122025.312000", "122025.312000", "122025.312000", "122025.312000", "122025.328000", "122045.281000", "122045.281000", "122045.281000", "122045.281000", "122045.281000", "122045.281000", "122045.296000", "122045.296000", "122045.296000", "122045.296000", "122045.296000", "122045.296000", "122045.312000", "122045.312000", "122045.312000", "122045.312000", "122045.312000", "122045.312000", "122045.312000", "122045.328000", "122106.734000", "122106.750000", "122106.750000", "122106.750000", "122106.750000", "122106.750000", "122106.750000", "122106.750000", "122106.765000", "122106.765000", "122106.765000", "122106.765000", "122106.765000", "122106.765000", "122106.765000", "122106.781000", "122106.781000"],
      "InstanceCreationTime": ["121605.312000", "121605.328000", "121605.328000", "121605.328000", "121605.328000", "121605.328000", "121605.328000", "121605.328000", "121605.343000", "121605.343000", "121605.343000", "121605.343000", "121605.343000", "121605.343000", "121605.343000", "121605.359000", "121605.359000", "121605.359000", "121605.375000", "121605.375000", "121605.375000", "121605.375000", "121605.375000", "121605.375000", "121605.390000", "121605.390000", "121605.390000", "121605.390000", "121605.390000", "121605.390000", "121605.390000", "121605.406000", "121605.406000", "121625.281000", "121625.281000", "121625.281000", "121625.296000", "121625.296000", "121625.296000", "121625.296000", "121625.296000", "121625.296000", "121625.312000", "121625.312000", "121625.312000", "121625.312000", "121625.312000", "121625.312000", "121625.328000", "121625.328000", "121625.328000", "121625.328000", "121625.328000", "121645.281000", "121645.281000", "121645.281000", "121645.281000", "121645.281000", "121645.281000", "121645.296000", "121645.296000", "121645.296000", "121645.296000", "121645.296000", "121645.312000", "121645.312000", "121645.312000", "121645.312000", "121645.312000", "121645.312000", "121645.312000", "121645.328000", "121645.328000", "121705.281000", "121705.281000", "121705.281000", "121705.281000", "121705.281000", "121705.281000", "121705.296000", "121705.296000", "121705.296000", "121705.296000", "121705.296000", "121705.296000", "121705.312000", "121705.312000", "121705.312000", "121705.312000", "121705.312000", "121705.312000", "121705.312000", "121705.328000", "121725.281000", "121725.281000", "121725.281000", "121725.281000", "121725.281000", "121725.281000", "121725.296000", "121725.296000", "121725.296000", "121725.296000", "121725.296000", "121725.296000", "121725.296000", "121725.296000", "121725.312000", "121725.312000", "121725.312000", "121725.312000", "121725.312000", "121725.328000", "121745.281000", "121745.281000", "121745.281000", "121745.281000", "121745.281000", "121745.281000", "121745.296000", "121745.296000", "121745.296000", "121745.296000", "121745.296000", "121745.296000", "121745.296000", "121745.312000", "121745.312000", "121745.312000", "121745.312000", "121745.312000", "121745.312000", "121745.312000", "121805.281000", "121805.281000", "121805.281000", "121805.281000", "121805.281000", "121805.296000", "121805.296000", "121805.296000", "121805.296000", "121805.296000", "121805.312000", "121805.312000", "121805.312000", "121805.312000", "121805.312000", "121805.312000", "121805.312000", "121805.312000", "121805.328000", "121805.328000", "121825.281000", "121825.281000", "121825.281000", "121825.281000", "121825.281000", "121825.281000", "121825.296000", "121825.296000", "121825.296000", "121825.296000", "121825.296000", "121825.296000", "121825.312000", "121825.312000", "121825.312000", "121825.312000", "121825.312000", "121825.312000", "121825.312000", "121825.328000", "121845.281000", "121845.281000", "121845.281000", "121845.281000", "121845.296000", "121845.296000", "121845.296000", "121845.296000", "121845.296000", "121845.296000", "121845.296000", "121845.312000", "121845.312000", "121845.312000", "121845.312000", "121845.312000", "121845.312000", "121845.312000", "121845.328000", "121845.328000", "121905.281000", "121905.281000", "121905.281000", "121905.281000", "121905.281000", "121905.281000", "121905.296000", "121905.296000", "121905.296000", "121905.296000", "121905.296000", "121905.296000", "121905.296000", "121905.312000", "121905.312000", "121905.312000", "121905.312000", "121905.312000", "121905.312000", "121905.312000", "121925.281000", "121925.281000", "121925.281000", "121925.281000", "121925.281000", "121925.281000", "121925.296000", "121925.296000", "121925.296000", "121925.296000", "121925.312000", "121925.312000", "121925.312000", "121925.312000", "121925.312000", "121925.312000", "121925.312000", "121925.328000", "121925.328000", "121925.328000", "121945.281000", "121945.281000", "121945.281000", "121945.281000", "121945.281000", "121945.281000", "121945.296000", "121945.296000", "121945.296000", "121945.296000", "121945.296000", "121945.296000", "121945.296000", "121945.312000", "121945.312000", "121945.312000", "121945.312000", "121945.312000", "121945.328000", "121945.328000", "122005.281000", "122005.281000", "122005.281000", "122005.281000", "122005.281000", "122005.281000", "122005.296000", "122005.296000", "122005.296000", "122005.296000", "122005.296000", "122005.296000", "122005.296000", "122005.296000", "122005.312000", "122005.312000", "122005.312000", "122005.312000", "122005.328000", "122005.328000", "122025.281000", "122025.281000", "122025.281000", "122025.281000", "122025.281000", "122025.281000", "122025.296000", "122025.296000", "122025.296000", "122025.296000", "122025.296000", "122025.296000", "122025.296000", "122025.296000", "122025.312000", "122025.312000", "122025.312000", "122025.312000", "122025.312000", "122025.328000", "122045.281000", "122045.281000", "122045.281000", "122045.281000", "122045.281000", "122045.281000", "122045.296000", "122045.296000", "122045.296000", "122045.296000", "122045.296000", "122045.296000", "122045.312000", "122045.312000", "122045.312000", "122045.312000", "122045.312000", "122045.312000", "122045.312000", "122045.328000", "122106.734000", "122106.750000", "122106.750000", "122106.750000", "122106.750000", "122106.750000", "122106.750000", "122106.750000", "122106.765000", "122106.765000", "122106.765000", "122106.765000", "122106.765000", "122106.765000", "122106.765000", "122106.781000", "122106.781000"],
      "InstanceNumber": [1, 2, 3, 4, 5, 6, 7, 8, 9, 10, 11, 12, 13, 14, 15, 16, 17, 18, 19, 20, 21, 22, 23, 24, 25, 26, 27, 28, 29, 30, 31, 32, 33, 34, 35, 36, 37, 38, 39, 40, 41, 42, 43, 44, 45, 46, 47, 48, 49, 50, 51, 52, 53, 54, 55, 56, 57, 58, 59, 60, 61, 62, 63, 64, 65, 66, 67, 68, 69, 70, 71, 72, 73, 74, 75, 76, 77, 78, 79, 80, 81, 82, 83, 84, 85, 86, 87, 88, 89, 90, 91, 92, 93, 94, 95, 96, 97, 98, 99, 100, 101, 102, 103, 104, 105, 106, 107, 108, 109, 110, 111, 112, 113, 114, 115, 116, 117, 118, 119, 120, 121, 122, 123, 124, 125, 126, 127, 128, 129, 130, 131, 132, 133, 134, 135, 136, 137, 138, 139, 140, 141, 142, 143, 144, 145, 146, 147, 148, 149, 150, 151, 152, 153, 154, 155, 156, 157, 158, 159, 160, 161, 162, 163, 164, 165, 166, 167, 168, 169, 170, 171, 172, 173, 174, 175, 176, 177, 178, 179, 180, 181, 182, 183, 184, 185, 186, 187, 188, 189, 190, 191, 192, 193, 194, 195, 196, 197, 198, 199, 200, 201, 202, 203, 204, 205, 206, 207, 208, 209, 210, 211, 212, 213, 214, 215, 216, 217, 218, 219, 220, 221, 222, 223, 224, 225, 226, 227, 228, 229, 230, 231, 232, 233, 234, 235, 236, 237, 238, 239, 240, 241, 242, 243, 244, 245, 246, 247, 248, 249, 250, 251, 252, 253, 254, 255, 256, 257, 258, 259, 260, 261, 262, 263, 264, 265, 266, 267, 268, 269, 270, 271, 272, 273, 274, 275, 276, 277, 278, 279, 280, 281, 282, 283, 284, 285, 286, 287, 288, 289, 290, 291, 292, 293, 294, 295, 296, 297, 298, 299, 300, 301, 302, 303, 304, 305, 306, 307, 308, 309, 310, 311, 312, 313, 314, 315, 316, 317, 318, 319, 320, 321, 322, 323, 324, 325, 326, 327, 328, 329, 330],
      "LargestImagePixelValue": [2460, 2395, 2376, 2398, 2393, 2374, 2353, 2332, 2376, 2438, 2382, 2332, 2365, 2392, 2376, 2353, 2367, 2383, 2368, 2362, 2424, 2370, 2358, 2413, 2337, 2331, 2379, 2330, 2328, 2347, 2361, 2402, 2391, 2347, 2314, 2402, 2386, 2347, 2403, 2354, 2313, 2381, 2380, 2332, 2342, 2356, 2370, 2372, 2357, 2317, 2370, 2402, 2370, 2364, 2343, 2313, 2355, 2333, 2318, 2297, 2320, 2361, 2325, 2379, 2319, 2288, 2364, 2340, 2330, 2331, 2333, 2330, 2340, 2333, 2338, 2312, 2378, 2358, 2330, 2314, 2384, 2378, 2359, 2359, 2383, 2325, 2350, 2402, 2358, 2332, 2383, 2323, 2341, 2352, 2341, 2323, 2327, 2315, 2314, 2387, 2322, 2356, 2379, 2397, 2338, 2364, 2417, 2426, 2422, 2364, 2369, 2411, 2375, 2373, 2326, 2401, 2347, 2364, 2386, 2351, 2397, 2388, 2381, 2306, 2333, 2358, 2344, 2382, 2397, 2338, 2361, 2386, 2352, 2332, 2350, 2361, 2379, 2386, 2322, 2329, 2404, 2420, 2384, 2432, 2357, 2372, 2373, 2422, 2361, 2361, 2379, 2437, 2428, 2418, 2358, 2447, 2454, 2421, 2402, 2395, 2420, 2418, 2444, 2403, 2346, 2378, 2411, 2372, 2387, 2338, 2351, 2359, 2433, 2386, 2321, 2320, 2315, 2355, 2357, 2369, 2325, 2351, 2357, 2346, 2377, 2323, 2362, 2400, 2361, 2333, 2351, 2374, 2362, 2374, 2341, 2335, 2382, 2349, 2346, 2372, 2389, 2344, 2330, 2318, 2333, 2349, 2356, 2327, 2357, 2429, 2323, 2346, 2313, 2336, 2366, 2322, 2351, 2332, 2380, 2395, 2397, 2454, 2419, 2409, 2362, 2347, 2342, 2339, 2436, 2400, 2344, 2405, 2345, 2327, 2412, 2309, 2357, 2393, 2336, 2361, 2417, 2363, 2351, 2426, 2370, 2361, 2401, 2334, 2438, 2389, 2362, 2369, 2390, 2396, 2450, 2405, 2323, 2400, 2442, 2455, 2429, 2428, 2369, 2442, 2480, 2428, 2399, 2445, 2418, 2399, 2427, 2438, 2393, 2396, 2495, 2420, 2373, 2424, 2380, 2431, 2481, 2454, 2408, 2425, 2332, 2339, 2372, 2362, 2364, 2350, 2345, 2343, 2396, 2385, 2367, 2400, 2416, 2408, 2404, 2391, 2372, 2357, 2379, 2341, 2434, 2454, 2417, 2399, 2420, 2407, 2442, 2392, 2390, 2424, 2445, 2438, 2428, 2442, 2427, 2491, 2452, 2432, 2425, 2471, 2470, 2483, 2448, 2422, 2450, 2501],
      "WindowCenter": [431.0, 430.0, 430.0, 429.0, 428.0, 428.0, 427.0, 426.0, 426.0, 428.0, 427.0, 426.0, 427.0, 428.0, 429.0, 430.0, 432.0, 432.0, 433.0, 433.0, 432.0, 431.0, 429.0, 430.0, 428.0, 426.0, 428.0, 427.0, 428.0, 429.0, 430.0, 430.0, 431.0, 430.0, 429.0, 430.0, 431.0, 430.0, 430.0, 429.0, 429.0, 429.0, 429.0, 429.0, 429.0, 429.0, 431.0, 430.0, 430.0, 429.0, 429.0, 428.0, 429.0, 429.0, 429.0, 429.0, 429.0, 429.0, 429.0, 429.0, 429.0, 430.0, 429.0, 429.0, 430.0, 429.0, 429.0, 430.0, 430.0, 430.0, 431.0, 432.0, 432.0, 432.0, 432.0, 432.0, 432.0, 432.0, 431.0, 430.0, 431.0, 431.0, 431.0, 431.0, 432.0, 431.0, 432.0, 432.0, 430.0, 429.0, 429.0, 428.0, 429.0, 429.0, 430.0, 430.0, 431.0, 430.0, 430.0, 431.0, 429.0, 429.0, 428.0, 428.0, 427.0, 428.0, 428.0, 429.0, 428.0, 428.0, 428.0, 428.0, 427.0, 427.0, 426.0, 428.0, 428.0, 429.0, 430.0, 430.0, 429.0, 429.0, 428.0, 427.0, 427.0, 428.0, 427.0, 428.0, 428.0, 429.0, 429.0, 429.0, 429.0, 429.0, 430.0, 431.0, 430.0, 430.0, 430.0, 429.0, 431.0, 431.0, 430.0, 430.0, 429.0, 428.0, 428.0, 429.0, 428.0, 427.0, 428.0, 430.0, 430.0, 432.0, 431.0, 432.0, 432.0, 432.0, 431.0, 430.0, 430.0, 429.0, 429.0, 428.0, 428.0, 428.0, 429.0, 430.0, 431.0, 431.0, 430.0, 431.0, 431.0, 429.0, 428.0, 428.0, 428.0, 428.0, 429.0, 428.0, 428.0, 429.0, 430.0, 430.0, 431.0, 430.0, 430.0, 431.0, 430.0, 430.0, 431.0, 431.0, 430.0, 431.0, 429.0, 429.0, 429.0, 429.0, 428.0, 430.0, 429.0, 430.0, 430.0, 430.0, 430.0, 430.0, 430.0, 430.0, 430.0, 431.0, 429.0, 429.0, 429.0, 429.0, 429.0, 429.0, 429.0, 430.0, 430.0, 430.0, 431.0, 431.0, 430.0, 430.0, 430.0, 429.0, 428.0, 429.0, 430.0, 430.0, 429.0, 431.0, 429.0, 429.0, 431.0, 429.0, 431.0, 431.0, 431.0, 431.0, 430.0, 428.0, 429.0, 429.0, 428.0, 429.0, 429.0, 429.0, 430.0, 429.0, 430.0, 430.0, 430.0, 430.0, 431.0, 430.0, 428.0, 430.0, 429.0, 430.0, 430.0, 430.0, 429.0, 430.0, 430.0, 429.0, 430.0, 430.0, 429.0, 431.0, 432.0, 431.0, 431.0, 432.0, 435.0, 434.0, 435.0, 435.0, 434.0, 435.0, 434.0, 434.0, 434.0, 434.0, 433.0, 433.0, 434.0, 433.0, 433.0, 433.0, 433.0, 432.0, 433.0, 431.0, 430.0, 431.0, 431.0, 431.0, 431.0, 431.0, 432.0, 432.0, 432.0, 432.0, 433.0, 432.0, 431.0, 432.0, 432.0, 432.0, 433.0, 432.0, 432.0, 432.0, 432.0, 433.0, 433.0, 434.0, 434.0, 436.0, 435.0, 435.0, 434.0, 434.0, 433.0, 433.0, 432.0, 432.0, 434.0, 434.0],
