{
  "AcquisitionMatrixPE": 104,
  "AcquisitionNumber": 1,
  "AcquisitionTime": "11:58:53.172500",
  "BandwidthPerPixelPhaseEncode": 43.054,
  "BaseResolution": 104,
  "CoilString": "C:E1_2",
  "ConversionSoftware": "dcm2niix",
  "ConversionSoftwareVersion": "v1.0.20191031",
  "DerivedVendorReportedEchoSpacing": 0.000669999,
  "DeviceSerialNumber": "18932",
  "DwellTime": 2.8e-06,
  "EchoTime": 0.02,
  "EffectiveEchoSpacing": 0.000223333,
  "FlipAngle": 30,
  "ImageComments": "Unaliased_MB2_PE2",
  "ImageOrientationPatientDICOM": [1, 2e-16, 0, -2e-16, 0.965926, -0.258819],
  "ImageType": [
    "ORIGINAL",
    "PRIMARY",
    "M",
    "MB",
    "ND",
    "MOSAIC"
],
  "ImagingFrequency": 297.229,
  "InPlanePhaseEncodingDirectionDICOM": "COL",
  "InstitutionAddress": "Richmond_Street_North_1151_London_409EF2_Ontario_CA_N6A_5B7",
  "InstitutionName": "Robarts_Reserch_Institute",
  "InstitutionalDepartmentName": "Department",
  "MRAcquisitionType": "2D",
  "MagneticFieldStrength": 6.98,
  "Manufacturer": "Siemens",
  "ManufacturersModelName": "Investigational_Device_7T",
  "Modality": "MR",
  "MultibandAccelerationFactor": 2,
  "ParallelReductionFactorInPlane": 3,
  "PartialFourier": 0.875,
  "PatientPosition": "HFS",
  "PercentPhaseFOV": 100,
  "PhaseEncodingDirection": "j-",
  "PhaseEncodingSteps": 91,
  "PhaseResolution": 1,
  "PixelBandwidth": 1717,
  "ProcedureStepDescription": "Diedrichsen_SeqRep4",
  "ProtocolName": "mbep2d_bold_mb2_p3_AP_2iso",
  "PulseSequenceDetails": "%CustomerSeq%_cmrr_mbep2d_bold",
  "ReceiveCoilName": "CFMM_8Tx32Rx",
  "ReconMatrixPE": 104,
  "RefLinesPE": 36,
  "RepetitionTime": 1,
  "ScanOptions": "PFP_FS",
  "ScanningSequence": "EP",
  "SequenceName": "epfid2d1_104",
  "SequenceVariant": "SK_SS",
  "SeriesDescription": "mbep2d_bold_mb2_p3_AP_2iso",
  "SeriesNumber": 19,
  "ShimSetting": [17, 2079, 27, 1472, -66, -420, 219, -110],
  "SliceThickness": 2,
  "SliceTiming": [0, 0.2275, 0.455, 0.685, 0.9125, 0.1375, 0.365, 0.5925, 0.82, 0.045, 0.2725, 0.5025, 0.73, 0.9575, 0.1825, 0.41, 0.6375, 0.8675, 0.09, 0.32, 0.5475, 0.775, 0, 0.2275, 0.455, 0.685, 0.9125, 0.1375, 0.365, 0.5925, 0.82, 0.045, 0.2725, 0.5025, 0.73, 0.9575, 0.1825, 0.41, 0.6375, 0.8675, 0.09, 0.32, 0.5475, 0.775],
  "SoftwareVersions": "syngo_MR_B17",
  "SpacingBetweenSlices": 2,
  "StationName": "MASTER",
  "TaskName": "dsp",
  "TotalReadoutTime": 0.0230033,
  "TxRefAmp": 112.832,
  "dcmmeta_affine": [
    [-2.0, -4.000000067449534e-16, 1.035276159788667e-16, 105.4527816772461],
    [-4.000000067449534e-16, 1.9318516254425049, -0.517638087272644, -109.18914794921875],
    [0.0, 0.517638087272644, 1.9318516254425049, -62.17266082763672],
    [0.0, 0.0, 0.0, 1.0]
],
  "dcmmeta_reorient_transform": [
    [0.0, -1.0, 0.0, 103.0],
    [1.0, 0.0, 0.0, 0.0],
    [0.0, 0.0, 1.0, 0.0],
    [0.0, 0.0, 0.0, 1.0]
],
  "dcmmeta_shape": [104, 104, 44, 330],
  "dcmmeta_slice_dim": 2,
  "dcmmeta_version": 0.6,
  "global": {
    "const": {
      "AcquisitionMatrix": [104, 0, 0, 104],
      "AngioFlag": "N",
      "BitsAllocated": 16,
      "BitsStored": 12,
      "Columns": 728,
      "EchoNumbers": 1,
      "EchoTime": 20.0,
      "EchoTrainLength": 1,
      "FlipAngle": 30.0,
      "HighBit": 11,
      "ImageOrientationPatient": [1.0, 2e-16, 0.0, -2e-16, 0.9659258278573, -0.2588190392498],
      "ImagePositionPatient": [-729.45278453827, -692.52928595953, 152.64714350843],
      "ImageType": [
        "ORIGINAL",
        "PRIMARY",
        "M",
        "MB",
        "ND",
        "MOSAIC"
],
      "ImagedNucleus": "1H",
      "ImagingFrequency": 297.228843,
      "InPlanePhaseEncodingDirection": "COL",
      "MRAcquisitionType": "2D",
      "MagneticFieldStrength": 6.98,
      "Manufacturer": "SIEMENS",
      "ManufacturerModelName": "Investigational_Device_7T",
      "Modality": "MR",
      "NumberOfAverages": 1.0,
      "NumberOfPhaseEncodingSteps": 91,
      "PercentPhaseFieldOfView": 100.0,
      "PercentSampling": 100.0,
      "PerformedProcedureStepStartTime": "112012.734000",
      "PhotometricInterpretation": "MONOCHROME2",
      "PixelBandwidth": 1717.0,
      "PixelRepresentation": 0,
      "PixelSpacing": [2.0, 2.0],
      "ProtocolName": "mbep2d_bold_mb2_p3_AP 2iso",
      "RepetitionTime": 1000.0,
      "Rows": 728,
      "SAR": 0.0,
      "SamplesPerPixel": 1,
      "ScanOptions": [
        "PFP",
        "FS"
],
      "ScanningSequence": "EP",
      "SequenceName": "epfid2d1_104",
      "SequenceVariant": [
        "SK",
        "SS"
],
      "SeriesDescription": "mbep2d_bold_mb2_p3_AP 2iso",
      "SeriesNumber": 19,
      "SeriesTime": "115917.937000",
      "SliceLocation": -31.793945980969,
      "SliceThickness": 2.0,
      "SmallestImagePixelValue": 0,
      "SoftwareVersions": "syngo MR B17",
      "SpacingBetweenSlices": 2.0000000119034,
      "SpecificCharacterSet": "ISO_IR 100",
      "StudyID": "1",
      "StudyTime": "112012.671000",
      "TransmitCoilName": "CFMM_8Tx32Rx",
      "VariableFlipAngleFlag": "N",
      "WindowCenterWidthExplanation": "Algo1",
      "dBdt": 0.0},
    "slices": {}
  },
  "time": {
    "samples": {
      "AcquisitionNumber": [1, 2, 3, 4, 5, 6, 7, 8, 9, 10, 11, 12, 13, 14, 15, 16, 17, 18, 19, 20, 21, 22, 23, 24, 25, 26, 27, 28, 29, 30, 31, 32, 33, 34, 35, 36, 37, 38, 39, 40, 41, 42, 43, 44, 45, 46, 47, 48, 49, 50, 51, 52, 53, 54, 55, 56, 57, 58, 59, 60, 61, 62, 63, 64, 65, 66, 67, 68, 69, 70, 71, 72, 73, 74, 75, 76, 77, 78, 79, 80, 81, 82, 83, 84, 85, 86, 87, 88, 89, 90, 91, 92, 93, 94, 95, 96, 97, 98, 99, 100, 101, 102, 103, 104, 105, 106, 107, 108, 109, 110, 111, 112, 113, 114, 115, 116, 117, 118, 119, 120, 121, 122, 123, 124, 125, 126, 127, 128, 129, 130, 131, 132, 133, 134, 135, 136, 137, 138, 139, 140, 141, 142, 143, 144, 145, 146, 147, 148, 149, 150, 151, 152, 153, 154, 155, 156, 157, 158, 159, 160, 161, 162, 163, 164, 165, 166, 167, 168, 169, 170, 171, 172, 173, 174, 175, 176, 177, 178, 179, 180, 181, 182, 183, 184, 185, 186, 187, 188, 189, 190, 191, 192, 193, 194, 195, 196, 197, 198, 199, 200, 201, 202, 203, 204, 205, 206, 207, 208, 209, 210, 211, 212, 213, 214, 215, 216, 217, 218, 219, 220, 221, 222, 223, 224, 225, 226, 227, 228, 229, 230, 231, 232, 233, 234, 235, 236, 237, 238, 239, 240, 241, 242, 243, 244, 245, 246, 247, 248, 249, 250, 251, 252, 253, 254, 255, 256, 257, 258, 259, 260, 261, 262, 263, 264, 265, 266, 267, 268, 269, 270, 271, 272, 273, 274, 275, 276, 277, 278, 279, 280, 281, 282, 283, 284, 285, 286, 287, 288, 289, 290, 291, 292, 293, 294, 295, 296, 297, 298, 299, 300, 301, 302, 303, 304, 305, 306, 307, 308, 309, 310, 311, 312, 313, 314, 315, 316, 317, 318, 319, 320, 321, 322, 323, 324, 325, 326, 327, 328, 329, 330],
      "AcquisitionTime": ["115853.172500", "115854.177500", "115855.180000", "115856.185000", "115857.187500", "115858.192500", "115859.197500", "115900.200000", "115901.205000", "115902.207500", "115903.212500", "115904.217500", "115905.220000", "115906.225000", "115907.227500", "115908.232500", "115909.237500", "115910.240000", "115911.245000", "115912.250000", "115913.252500", "115914.257500", "115915.260000", "115916.265000", "115917.270000", "115918.272500", "115919.277500", "115920.280000", "115921.285000", "115922.290000", "115923.292500", "115924.297500", "115925.300000", "115926.305000", "115927.310000", "115928.312500", "115929.317500", "115930.320000", "115931.325000", "115932.330000", "115933.332500", "115934.337500", "115935.340000", "115936.345000", "115937.350000", "115938.352500", "115939.357500", "115940.362500", "115941.365000", "115942.370000", "115943.372500", "115944.377500", "115945.382500", "115946.385000", "115947.390000", "115948.392500", "115949.397500", "115950.402500", "115951.405000", "115952.410000", "115953.412500", "115954.417500", "115955.422500", "115956.425000", "115957.430000", "115958.432500", "115959.437500", "120000.442500", "120001.445000", "120002.450000", "120003.452500", "120004.457500", "120005.462500", "120006.465000", "120007.470000", "120008.472500", "120009.477500", "120010.482500", "120011.485000", "120012.490000", "120013.495000", "120014.497500", "120015.502500", "120016.505000", "120017.510000", "120018.515000", "120019.517500", "120020.522500", "120021.525000", "120022.530000", "120023.535000", "120024.537500", "120025.542500", "120026.545000", "120027.550000", "120028.555000", "120029.557500", "120030.562500", "120031.565000", "120032.570000", "120033.575000", "120034.577500", "120035.582500", "120036.585000", "120037.590000", "120038.595000", "120039.597500", "120040.602500", "120041.607500", "120042.610000", "120043.615000", "120044.617500", "120045.622500", "120046.627500", "120047.630000", "120048.635000", "120049.637500", "120050.642500", "120051.647500", "120052.650000", "120053.655000", "120054.657500", "120055.662500", "120056.667500", "120057.670000", "120058.675000", "120059.677500", "120100.682500", "120101.687500", "120102.690000", "120103.695000", "120104.697500", "120105.702500", "120106.707500", "120107.710000", "120108.715000", "120109.717500", "120110.722500", "120111.727500", "120112.730000", "120113.735000", "120114.740000", "120115.742500", "120116.747500", "120117.750000", "120118.755000", "120119.760000", "120120.762500", "120121.767500", "120122.770000", "120123.775000", "120124.780000", "120125.782500", "120126.787500", "120127.790000", "120128.795000", "120129.800000", "120130.802500", "120131.807500", "120132.810000", "120133.815000", "120134.820000", "120135.822500", "120136.827500", "120137.830000", "120138.835000", "120139.840000", "120140.842500", "120141.847500", "120142.850000", "120143.855000", "120144.860000", "120145.862500", "120146.867500", "120147.872500", "120148.875000", "120149.880000", "120150.882500", "120151.887500", "120152.892500", "120153.895000", "120154.900000", "120155.902500", "120156.907500", "120157.912500", "120158.915000", "120159.920000", "120200.922500", "120201.927500", "120202.932500", "120203.935000", "120204.940000", "120205.942500", "120206.947500", "120207.952500", "120208.955000", "120209.960000", "120210.962500", "120211.967500", "120212.972500", "120213.975000", "120214.980000", "120215.985000", "120216.987500", "120217.992500", "120218.995000", "120220.000000", "120221.005000", "120222.007500", "120223.012500", "120224.015000", "120225.020000", "120226.025000", "120227.027500", "120228.032500", "120229.035000", "120230.040000", "120231.045000", "120232.047500", "120233.052500", "120234.055000", "120235.060000", "120236.065000", "120237.067500", "120238.072500", "120239.075000", "120240.080000", "120241.085000", "120242.087500", "120243.092500", "120244.095000", "120245.100000", "120246.105000", "120247.107500", "120248.112500", "120249.117500", "120250.120000", "120251.125000", "120252.127500", "120253.132500", "120254.137500", "120255.140000", "120256.145000", "120257.147500", "120258.152500", "120259.157500", "120300.160000", "120301.165000", "120302.167500", "120303.172500", "120304.177500", "120305.180000", "120306.185000", "120307.187500", "120308.192500", "120309.197500", "120310.200000", "120311.205000", "120312.207500", "120313.212500", "120314.217500", "120315.220000", "120316.225000", "120317.227500", "120318.232500", "120319.237500", "120320.240000", "120321.245000", "120322.250000", "120323.252500", "120324.257500", "120325.260000", "120326.265000", "120327.270000", "120328.272500", "120329.277500", "120330.280000", "120331.285000", "120332.290000", "120333.292500", "120334.297500", "120335.300000", "120336.305000", "120337.310000", "120338.312500", "120339.317500", "120340.320000", "120341.325000", "120342.330000", "120343.332500", "120344.337500", "120345.340000", "120346.345000", "120347.350000", "120348.352500", "120349.357500", "120350.362500", "120351.365000", "120352.370000", "120353.372500", "120354.377500", "120355.382500", "120356.385000", "120357.390000", "120358.392500", "120359.397500", "120400.402500", "120401.405000", "120402.410000", "120403.412500", "120404.417500", "120405.422500", "120406.425000", "120407.430000", "120408.432500", "120409.437500", "120410.442500", "120411.445000", "120412.450000", "120413.452500", "120414.457500", "120415.462500", "120416.465000", "120417.470000", "120418.472500", "120419.477500", "120420.482500", "120421.485000", "120422.490000", "120423.495000"],
      "ContentTime": ["115917.937000", "115917.937000", "115917.937000", "115917.953000", "115917.953000", "115917.953000", "115917.953000", "115917.953000", "115917.953000", "115917.953000", "115917.953000", "115917.968000", "115917.968000", "115917.968000", "115917.968000", "115917.984000", "115917.984000", "115917.984000", "115917.984000", "115917.984000", "115917.984000", "115917.984000", "115917.984000", "115937.906000", "115937.906000", "115937.906000", "115937.906000", "115937.906000", "115937.921000", "115937.921000", "115937.921000", "115937.921000", "115937.921000", "115937.921000", "115937.937000", "115937.937000", "115937.937000", "115937.937000", "115937.937000", "115937.937000", "115937.937000", "115937.953000", "115937.953000", "115957.906000", "115957.906000", "115957.906000", "115957.906000", "115957.906000", "115957.906000", "115957.921000", "115957.921000", "115957.921000", "115957.921000", "115957.921000", "115957.921000", "115957.921000", "115957.921000", "115957.937000", "115957.937000", "115957.937000", "115957.953000", "115957.953000", "115957.953000", "120017.906000", "120017.906000", "120017.906000", "120017.906000", "120017.906000", "120017.921000", "120017.921000", "120017.921000", "120017.921000", "120017.921000", "120017.921000", "120017.921000", "120017.937000", "120017.937000", "120017.937000", "120017.937000", "120017.937000", "120017.937000", "120017.937000", "120017.937000", "120037.906000", "120037.906000", "120037.906000", "120037.906000", "120037.906000", "120037.906000", "120037.921000", "120037.921000", "120037.921000", "120037.921000", "120037.921000", "120037.921000", "120037.921000", "120037.921000", "120037.937000", "120037.937000", "120037.937000", "120037.937000", "120037.937000", "120037.937000", "120057.906000", "120057.906000", "120057.906000", "120057.906000", "120057.906000", "120057.921000", "120057.921000", "120057.921000", "120057.921000", "120057.921000", "120057.921000", "120057.921000", "120057.937000", "120057.937000", "120057.937000", "120057.937000", "120057.937000", "120057.937000", "120057.937000", "120057.953000", "120117.906000", "120117.906000", "120117.906000", "120117.906000", "120117.906000", "120117.906000", "120117.921000", "120117.921000", "120117.921000", "120117.921000", "120117.921000", "120117.921000", "120117.937000", "120117.937000", "120117.937000", "120117.937000", "120117.937000", "120117.937000", "120117.937000", "120117.953000", "120137.906000", "120137.906000", "120137.906000", "120137.906000", "120137.906000", "120137.906000", "120137.921000", "120137.921000", "120137.921000", "120137.921000", "120137.921000", "120137.937000", "120137.937000", "120137.937000", "120137.937000", "120137.937000", "120137.937000", "120137.937000", "120137.937000", "120137.953000", "120157.906000", "120157.906000", "120157.906000", "120157.921000", "120157.921000", "120157.921000", "120157.921000", "120157.921000", "120157.937000", "120157.937000", "120157.937000", "120157.937000", "120157.937000", "120157.953000", "120157.953000", "120157.953000", "120157.953000", "120157.953000", "120157.953000", "120157.953000", "120217.906000", "120217.906000", "120217.906000", "120217.906000", "120217.906000", "120217.906000", "120217.921000", "120217.921000", "120217.921000", "120217.921000", "120217.921000", "120217.921000", "120217.937000", "120217.937000", "120217.937000", "120217.937000", "120217.937000", "120217.937000", "120217.953000", "120217.953000", "120237.906000", "120237.906000", "120237.906000", "120237.906000", "120237.921000", "120237.921000", "120237.921000", "120237.921000", "120237.921000", "120237.921000", "120237.921000", "120237.921000", "120237.937000", "120237.937000", "120237.937000", "120237.937000", "120237.937000", "120237.937000", "120237.937000", "120237.953000", "120257.906000", "120257.906000", "120257.906000", "120257.906000", "120257.906000", "120257.906000", "120257.921000", "120257.921000", "120257.921000", "120257.921000", "120257.921000", "120257.921000", "120257.921000", "120257.921000", "120257.937000", "120257.937000", "120257.937000", "120257.937000", "120257.937000", "120257.937000", "120317.906000", "120317.906000", "120317.906000", "120317.906000", "120317.906000", "120317.906000", "120317.921000", "120317.921000", "120317.921000", "120317.921000", "120317.921000", "120317.921000", "120317.937000", "120317.937000", "120317.937000", "120317.937000", "120317.937000", "120317.937000", "120317.937000", "120317.953000", "120337.906000", "120337.906000", "120337.906000", "120337.906000", "120337.921000", "120337.921000", "120337.921000", "120337.921000", "120337.921000", "120337.921000", "120337.921000", "120337.921000", "120337.937000", "120337.937000", "120337.937000", "120337.937000", "120337.937000", "120337.937000", "120337.937000", "120337.953000", "120357.906000", "120357.906000", "120357.906000", "120357.906000", "120357.906000", "120357.906000", "120357.921000", "120357.921000", "120357.921000", "120357.921000", "120357.921000", "120357.937000", "120357.937000", "120357.937000", "120357.937000", "120357.937000", "120357.937000", "120357.937000", "120357.937000", "120357.953000", "120417.906000", "120417.906000", "120417.906000", "120417.906000", "120417.906000", "120417.906000", "120417.921000", "120417.921000", "120417.921000", "120417.921000", "120417.921000", "120417.921000", "120417.921000", "120417.921000", "120417.937000", "120417.937000", "120417.937000", "120417.937000", "120417.937000", "120417.937000", "120429.703000", "120429.703000", "120429.703000", "120429.703000", "120429.703000", "120429.703000", "120429.703000"],
      "InstanceCreationTime": ["115917.937000", "115917.937000", "115917.937000", "115917.953000", "115917.953000", "115917.953000", "115917.953000", "115917.953000", "115917.953000", "115917.953000", "115917.953000", "115917.968000", "115917.968000", "115917.968000", "115917.968000", "115917.984000", "115917.984000", "115917.984000", "115917.984000", "115917.984000", "115917.984000", "115917.984000", "115917.984000", "115937.906000", "115937.906000", "115937.906000", "115937.906000", "115937.906000", "115937.921000", "115937.921000", "115937.921000", "115937.921000", "115937.921000", "115937.921000", "115937.937000", "115937.937000", "115937.937000", "115937.937000", "115937.937000", "115937.937000", "115937.937000", "115937.953000", "115937.953000", "115957.906000", "115957.906000", "115957.906000", "115957.906000", "115957.906000", "115957.906000", "115957.921000", "115957.921000", "115957.921000", "115957.921000", "115957.921000", "115957.921000", "115957.921000", "115957.921000", "115957.937000", "115957.937000", "115957.937000", "115957.953000", "115957.953000", "115957.953000", "120017.906000", "120017.906000", "120017.906000", "120017.906000", "120017.906000", "120017.921000", "120017.921000", "120017.921000", "120017.921000", "120017.921000", "120017.921000", "120017.921000", "120017.937000", "120017.937000", "120017.937000", "120017.937000", "120017.937000", "120017.937000", "120017.937000", "120017.937000", "120037.906000", "120037.906000", "120037.906000", "120037.906000", "120037.906000", "120037.906000", "120037.921000", "120037.921000", "120037.921000", "120037.921000", "120037.921000", "120037.921000", "120037.921000", "120037.921000", "120037.937000", "120037.937000", "120037.937000", "120037.937000", "120037.937000", "120037.937000", "120057.906000", "120057.906000", "120057.906000", "120057.906000", "120057.906000", "120057.921000", "120057.921000", "120057.921000", "120057.921000", "120057.921000", "120057.921000", "120057.921000", "120057.937000", "120057.937000", "120057.937000", "120057.937000", "120057.937000", "120057.937000", "120057.937000", "120057.953000", "120117.906000", "120117.906000", "120117.906000", "120117.906000", "120117.906000", "120117.906000", "120117.921000", "120117.921000", "120117.921000", "120117.921000", "120117.921000", "120117.921000", "120117.937000", "120117.937000", "120117.937000", "120117.937000", "120117.937000", "120117.937000", "120117.937000", "120117.953000", "120137.906000", "120137.906000", "120137.906000", "120137.906000", "120137.906000", "120137.906000", "120137.921000", "120137.921000", "120137.921000", "120137.921000", "120137.921000", "120137.937000", "120137.937000", "120137.937000", "120137.937000", "120137.937000", "120137.937000", "120137.937000", "120137.937000", "120137.953000", "120157.906000", "120157.906000", "120157.906000", "120157.921000", "120157.921000", "120157.921000", "120157.921000", "120157.921000", "120157.937000", "120157.937000", "120157.937000", "120157.937000", "120157.937000", "120157.953000", "120157.953000", "120157.953000", "120157.953000", "120157.953000", "120157.953000", "120157.953000", "120217.906000", "120217.906000", "120217.906000", "120217.906000", "120217.906000", "120217.906000", "120217.921000", "120217.921000", "120217.921000", "120217.921000", "120217.921000", "120217.921000", "120217.937000", "120217.937000", "120217.937000", "120217.937000", "120217.937000", "120217.937000", "120217.953000", "120217.953000", "120237.906000", "120237.906000", "120237.906000", "120237.906000", "120237.921000", "120237.921000", "120237.921000", "120237.921000", "120237.921000", "120237.921000", "120237.921000", "120237.921000", "120237.937000", "120237.937000", "120237.937000", "120237.937000", "120237.937000", "120237.937000", "120237.937000", "120237.953000", "120257.906000", "120257.906000", "120257.906000", "120257.906000", "120257.906000", "120257.906000", "120257.921000", "120257.921000", "120257.921000", "120257.921000", "120257.921000", "120257.921000", "120257.921000", "120257.921000", "120257.937000", "120257.937000", "120257.937000", "120257.937000", "120257.937000", "120257.937000", "120317.906000", "120317.906000", "120317.906000", "120317.906000", "120317.906000", "120317.906000", "120317.921000", "120317.921000", "120317.921000", "120317.921000", "120317.921000", "120317.921000", "120317.937000", "120317.937000", "120317.937000", "120317.937000", "120317.937000", "120317.937000", "120317.937000", "120317.953000", "120337.906000", "120337.906000", "120337.906000", "120337.906000", "120337.921000", "120337.921000", "120337.921000", "120337.921000", "120337.921000", "120337.921000", "120337.921000", "120337.921000", "120337.937000", "120337.937000", "120337.937000", "120337.937000", "120337.937000", "120337.937000", "120337.937000", "120337.953000", "120357.906000", "120357.906000", "120357.906000", "120357.906000", "120357.906000", "120357.906000", "120357.921000", "120357.921000", "120357.921000", "120357.921000", "120357.921000", "120357.937000", "120357.937000", "120357.937000", "120357.937000", "120357.937000", "120357.937000", "120357.937000", "120357.937000", "120357.953000", "120417.906000", "120417.906000", "120417.906000", "120417.906000", "120417.906000", "120417.906000", "120417.921000", "120417.921000", "120417.921000", "120417.921000", "120417.921000", "120417.921000", "120417.921000", "120417.921000", "120417.937000", "120417.937000", "120417.937000", "120417.937000", "120417.937000", "120417.937000", "120429.703000", "120429.703000", "120429.703000", "120429.703000", "120429.703000", "120429.703000", "120429.703000"],
      "InstanceNumber": [1, 2, 3, 4, 5, 6, 7, 8, 9, 10, 11, 12, 13, 14, 15, 16, 17, 18, 19, 20, 21, 22, 23, 24, 25, 26, 27, 28, 29, 30, 31, 32, 33, 34, 35, 36, 37, 38, 39, 40, 41, 42, 43, 44, 45, 46, 47, 48, 49, 50, 51, 52, 53, 54, 55, 56, 57, 58, 59, 60, 61, 62, 63, 64, 65, 66, 67, 68, 69, 70, 71, 72, 73, 74, 75, 76, 77, 78, 79, 80, 81, 82, 83, 84, 85, 86, 87, 88, 89, 90, 91, 92, 93, 94, 95, 96, 97, 98, 99, 100, 101, 102, 103, 104, 105, 106, 107, 108, 109, 110, 111, 112, 113, 114, 115, 116, 117, 118, 119, 120, 121, 122, 123, 124, 125, 126, 127, 128, 129, 130, 131, 132, 133, 134, 135, 136, 137, 138, 139, 140, 141, 142, 143, 144, 145, 146, 147, 148, 149, 150, 151, 152, 153, 154, 155, 156, 157, 158, 159, 160, 161, 162, 163, 164, 165, 166, 167, 168, 169, 170, 171, 172, 173, 174, 175, 176, 177, 178, 179, 180, 181, 182, 183, 184, 185, 186, 187, 188, 189, 190, 191, 192, 193, 194, 195, 196, 197, 198, 199, 200, 201, 202, 203, 204, 205, 206, 207, 208, 209, 210, 211, 212, 213, 214, 215, 216, 217, 218, 219, 220, 221, 222, 223, 224, 225, 226, 227, 228, 229, 230, 231, 232, 233, 234, 235, 236, 237, 238, 239, 240, 241, 242, 243, 244, 245, 246, 247, 248, 249, 250, 251, 252, 253, 254, 255, 256, 257, 258, 259, 260, 261, 262, 263, 264, 265, 266, 267, 268, 269, 270, 271, 272, 273, 274, 275, 276, 277, 278, 279, 280, 281, 282, 283, 284, 285, 286, 287, 288, 289, 290, 291, 292, 293, 294, 295, 296, 297, 298, 299, 300, 301, 302, 303, 304, 305, 306, 307, 308, 309, 310, 311, 312, 313, 314, 315, 316, 317, 318, 319, 320, 321, 322, 323, 324, 325, 326, 327, 328, 329, 330],
      "LargestImagePixelValue": [2400, 2446, 2393, 2399, 2432, 2410, 2377, 2397, 2359, 2383, 2362, 2410, 2336, 2377, 2395, 2376, 2418, 2407, 2401, 2382, 2351, 2306, 2384, 2320, 2379, 2385, 2404, 2392, 2394, 2345, 2409, 2371, 2324, 2421, 2395, 2386, 2366, 2411, 2375, 2419, 2438, 2427, 2365, 2390, 2381, 2391, 2381, 2383, 2391, 2367, 2390, 2411, 2406, 2392, 2367, 2385, 2388, 2394, 2405, 2433, 2431, 2416, 2373, 2424, 2424, 2392, 2435, 2423, 2406, 2355, 2332, 2307, 2340, 2315, 2294, 2339, 2378, 2350, 2338, 2348, 2385, 2374, 2358, 2389, 2341, 2384, 2381, 2349, 2348, 2344, 2369, 2364, 2380, 2349, 2377, 2387, 2342, 2397, 2381, 2367, 2368, 2416, 2358, 2404, 2358, 2388, 2442, 2410, 2387, 2388, 2446, 2376, 2361, 2416, 2379, 2418, 2433, 2374, 2391, 2383, 2375, 2419, 2425, 2367, 2417, 2404, 2365, 2374, 2408, 2372, 2331, 2419, 2392, 2363, 2381, 2403, 2421, 2413, 2389, 2404, 2390, 2414, 2336, 2433, 2379, 2404, 2391, 2411, 2428, 2413, 2433, 2401, 2363, 2352, 2356, 2382, 2339, 2397, 2330, 2400, 2367, 2357, 2354, 2372, 2400, 2391, 2435, 2365, 2317, 2351, 2369, 2405, 2378, 2391, 2342, 2381, 2380, 2400, 2379, 2364, 2401, 2365, 2408, 2377, 2399, 2404, 2392, 2407, 2384, 2396, 2412, 2394, 2382, 2413, 2369, 2373, 2349, 2314, 2312, 2337, 2306, 2333, 2343, 2321, 2323, 2351, 2388, 2356, 2351, 2338, 2348, 2342, 2340, 2413, 2371, 2366, 2415, 2351, 2350, 2356, 2361, 2366, 2332, 2319, 2334, 2361, 2339, 2400, 2403, 2370, 2378, 2416, 2365, 2354, 2379, 2403, 2389, 2390, 2395, 2395, 2438, 2372, 2407, 2352, 2371, 2377, 2370, 2383, 2354, 2410, 2396, 2447, 2418, 2356, 2377, 2418, 2382, 2379, 2351, 2405, 2335, 2406, 2391, 2345, 2411, 2368, 2402, 2415, 2366, 2378, 2418, 2387, 2384, 2347, 2335, 2311, 2350, 2317, 2365, 2338, 2397, 2374, 2351, 2337, 2336, 2322, 2323, 2321, 2308, 2359, 2370, 2358, 2422, 2332, 2363, 2369, 2374, 2369, 2331, 2359, 2369, 2347, 2436, 2360, 2350, 2412, 2392, 2433, 2370, 2375, 2346, 2398, 2348, 2378, 2357, 2351, 2392, 2315, 2387, 2430, 2387, 2397, 2383, 2360, 2333, 2386, 2381, 2348, 2363, 2338],
      "WindowCenter": [428.0, 429.0, 428.0, 429.0, 430.0, 430.0, 430.0, 429.0, 428.0, 428.0, 428.0, 428.0, 428.0, 428.0, 429.0, 430.0, 431.0, 431.0, 431.0, 430.0, 429.0, 429.0, 428.0, 427.0, 428.0, 427.0, 427.0, 428.0, 429.0, 428.0, 429.0, 429.0, 428.0, 428.0, 428.0, 427.0, 426.0, 427.0, 427.0, 427.0, 429.0, 428.0, 428.0, 428.0, 428.0, 429.0, 430.0, 431.0, 431.0, 430.0, 430.0, 430.0, 430.0, 431.0, 429.0, 430.0, 430.0, 431.0, 432.0, 433.0, 434.0, 434.0, 432.0, 432.0, 431.0, 431.0, 430.0, 429.0, 428.0, 428.0, 428.0, 428.0, 428.0, 428.0, 429.0, 428.0, 428.0, 429.0, 428.0, 428.0, 428.0, 428.0, 427.0, 427.0, 427.0, 428.0, 428.0, 428.0, 429.0, 430.0, 431.0, 431.0, 431.0, 429.0, 429.0, 428.0, 428.0, 428.0, 428.0, 428.0, 428.0, 428.0, 429.0, 429.0, 430.0, 431.0, 432.0, 433.0, 432.0, 432.0, 432.0, 431.0, 430.0, 430.0, 431.0, 431.0, 432.0, 432.0, 431.0, 430.0, 429.0, 428.0, 428.0, 427.0, 427.0, 427.0, 428.0, 429.0, 429.0, 430.0, 429.0, 430.0, 430.0, 430.0, 430.0, 430.0, 431.0, 430.0, 430.0, 430.0, 429.0, 429.0, 428.0, 430.0, 430.0, 430.0, 431.0, 431.0, 431.0, 431.0, 431.0, 429.0, 429.0, 429.0, 428.0, 429.0, 429.0, 430.0, 430.0, 431.0, 431.0, 430.0, 431.0, 430.0, 430.0, 429.0, 430.0, 429.0, 428.0, 428.0, 429.0, 429.0, 429.0, 429.0, 429.0, 430.0, 429.0, 429.0, 429.0, 429.0, 430.0, 429.0, 430.0, 431.0, 431.0, 431.0, 431.0, 431.0, 430.0, 429.0, 428.0, 428.0, 428.0, 429.0, 428.0, 429.0, 429.0, 429.0, 428.0, 429.0, 429.0, 429.0, 430.0, 430.0, 430.0, 430.0, 430.0, 429.0, 429.0, 429.0, 429.0, 429.0, 429.0, 430.0, 429.0, 429.0, 429.0, 428.0, 428.0, 427.0, 428.0, 428.0, 428.0, 429.0, 430.0, 431.0, 431.0, 432.0, 431.0, 430.0, 430.0, 430.0, 429.0, 429.0, 430.0, 431.0, 430.0, 431.0, 430.0, 430.0, 431.0, 429.0, 430.0, 430.0, 430.0, 431.0, 431.0, 431.0, 430.0, 431.0, 429.0, 429.0, 429.0, 429.0, 429.0, 430.0, 431.0, 431.0, 431.0, 430.0, 429.0, 429.0, 429.0, 429.0, 430.0, 430.0, 431.0, 431.0, 430.0, 430.0, 431.0, 430.0, 430.0, 429.0, 430.0, 431.0, 431.0, 429.0, 430.0, 431.0, 431.0, 429.0, 428.0, 427.0, 426.0, 426.0, 426.0, 428.0, 429.0, 431.0, 431.0, 430.0, 430.0, 427.0, 427.0, 427.0, 428.0, 429.0, 429.0, 429.0, 429.0, 429.0, 430.0, 428.0, 428.0, 430.0, 430.0, 431.0, 431.0, 431.0, 430.0, 430.0, 428.0, 428.0, 428.0, 428.0, 428.0, 428.0, 431.0, 432.0, 432.0, 431.0, 431.0, 430.0, 429.0, 428.0, 427.0, 427.0, 428.0, 428.0],
