{
  "AcquisitionMatrixPE": 104,
  "AcquisitionNumber": 1,
  "AcquisitionTime": "14:46:35.165000",
  "BandwidthPerPixelPhaseEncode": 43.054,
  "BaseResolution": 104,
  "CoilString": "C:E1_2",
  "ConversionSoftware": "dcm2niix",
  "ConversionSoftwareVersion": "v1.0.20191031",
  "DerivedVendorReportedEchoSpacing": 0.000669999,
  "DeviceSerialNumber": "18932",
  "DwellTime": 2.8e-06,
  "EchoTime": 0.02,
  "EffectiveEchoSpacing": 0.000223333,
  "FlipAngle": 30,
  "ImageComments": "Unaliased_MB2_PE2",
  "ImageOrientationPatientDICOM": [1, 0, 0, 0, 0.999816, -0.0191974],
  "ImageType": [
    "ORIGINAL",
    "PRIMARY",
    "M",
    "MB",
    "ND",
    "MOSAIC"
],
  "ImagingFrequency": 297.229,
  "InPlanePhaseEncodingDirectionDICOM": "COL",
  "InstitutionAddress": "Richmond_Street_North_1151_London_409EF2_Ontario_CA_N6A_5B7",
  "InstitutionName": "Robarts_Reserch_Institute",
  "InstitutionalDepartmentName": "Department",
  "MRAcquisitionType": "2D",
  "MagneticFieldStrength": 6.98,
  "Manufacturer": "Siemens",
  "ManufacturersModelName": "Investigational_Device_7T",
  "Modality": "MR",
  "MultibandAccelerationFactor": 2,
  "ParallelReductionFactorInPlane": 3,
  "PartialFourier": 0.875,
  "PatientPosition": "HFS",
  "PercentPhaseFOV": 100,
  "PhaseEncodingDirection": "j-",
  "PhaseEncodingSteps": 91,
  "PhaseResolution": 1,
  "PixelBandwidth": 1717,
  "ProcedureStepDescription": "Diedrichsen_SeqRep4",
  "ProtocolName": "mbep2d_bold_mb2_p3_AP_2iso",
  "PulseSequenceDetails": "%CustomerSeq%_cmrr_mbep2d_bold",
  "ReceiveCoilName": "CFMM_8Tx32Rx",
  "ReconMatrixPE": 104,
  "RefLinesPE": 36,
  "RepetitionTime": 1,
  "ScanOptions": "PFP_FS",
  "ScanningSequence": "EP",
  "SequenceName": "epfid2d1_104",
  "SequenceVariant": "SK_SS",
  "SeriesDescription": "mbep2d_bold_mb2_p3_AP_2iso",
  "SeriesNumber": 26,
  "ShimSetting": [24, 1989, 99, 1296, 204, 121, -70, -195],
  "SliceThickness": 2,
  "SliceTiming": [0, 0.2275, 0.4575, 0.685, 0.9125, 0.1375, 0.365, 0.5925, 0.8225, 0.045, 0.275, 0.5025, 0.73, 0.9575, 0.1825, 0.41, 0.64, 0.8675, 0.0925, 0.32, 0.5475, 0.775, 0, 0.2275, 0.4575, 0.685, 0.9125, 0.1375, 0.365, 0.5925, 0.8225, 0.045, 0.275, 0.5025, 0.73, 0.9575, 0.1825, 0.41, 0.64, 0.8675, 0.0925, 0.32, 0.5475, 0.775],
  "SoftwareVersions": "syngo_MR_B17",
  "SpacingBetweenSlices": 2,
  "StationName": "MASTER",
  "TaskName": "dsp",
  "TotalReadoutTime": 0.0230033,
  "TxRefAmp": 120,
  "dcmmeta_affine": [
    [-2.0, 0.0, 0.0, 105.4527816772461],
    [0.0, 1.999631404876709, -0.03839488327503204, -104.06344604492188],
    [0.0, 0.03839488327503204, 1.999631404876709, -13.038399696350098],
    [0.0, 0.0, 0.0, 1.0]
],
  "dcmmeta_reorient_transform": [
    [0.0, -1.0, 0.0, 103.0],
    [1.0, 0.0, 0.0, 0.0],
    [0.0, 0.0, 1.0, 0.0],
    [0.0, 0.0, 0.0, 1.0]
],
  "dcmmeta_shape": [104, 104, 44, 330],
  "dcmmeta_slice_dim": 2,
  "dcmmeta_version": 0.6,
  "global": {
    "const": {
      "AcquisitionMatrix": [104, 0, 0, 104],
      "AngioFlag": "N",
      "BitsAllocated": 16,
      "BitsStored": 12,
      "Columns": 728,
      "EchoNumbers": 1,
      "EchoTime": 20.0,
      "EchoTrainLength": 1,
      "FlipAngle": 30.0,
      "HighBit": 11,
      "ImageOrientationPatient": [1.0, 0.0, 0.0, 0.0, 0.99981571213624, -0.0191974416394],
      "ImagePositionPatient": [-729.45278453827, -725.78359141637, 2.8954772367172],
      "ImageType": [
        "ORIGINAL",
        "PRIMARY",
        "M",
        "MB",
        "ND",
        "MOSAIC"
],
      "ImagedNucleus": "1H",
      "ImagingFrequency": 297.228976,
      "InPlanePhaseEncodingDirection": "COL",
      "MRAcquisitionType": "2D",
      "MagneticFieldStrength": 6.98,
      "Manufacturer": "SIEMENS",
      "ManufacturerModelName": "Investigational_Device_7T",
      "Modality": "MR",
      "NumberOfAverages": 1.0,
      "NumberOfPhaseEncodingSteps": 91,
      "PercentPhaseFieldOfView": 100.0,
      "PercentSampling": 100.0,
      "PerformedProcedureStepStartTime": "135324.296000",
      "PhotometricInterpretation": "MONOCHROME2",
      "PixelBandwidth": 1717.0,
      "PixelRepresentation": 0,
      "PixelSpacing": [2.0, 2.0],
      "ProtocolName": "mbep2d_bold_mb2_p3_AP 2iso",
      "RepetitionTime": 1000.0,
      "Rows": 728,
      "SAR": 0.0,
      "SamplesPerPixel": 1,
      "ScanOptions": [
        "PFP",
        "FS"
],
      "ScanningSequence": "EP",
      "SequenceName": "epfid2d1_104",
      "SequenceVariant": [
        "SK",
        "SS"
],
      "SeriesDescription": "mbep2d_bold_mb2_p3_AP 2iso",
      "SeriesNumber": 26,
      "SeriesTime": "144704.593000",
      "SliceLocation": -11.038244503676,
      "SliceThickness": 2.0,
      "SmallestImagePixelValue": 0,
      "SoftwareVersions": "syngo MR B17",
      "SpacingBetweenSlices": 2.0000000361568,
      "SpecificCharacterSet": "ISO_IR 100",
      "StudyID": "1",
      "StudyTime": "135324.171000",
      "TransmitCoilName": "CFMM_8Tx32Rx",
      "VariableFlipAngleFlag": "N",
      "WindowCenterWidthExplanation": "Algo1",
      "dBdt": 0.0},
    "slices": {}
  },
  "time": {
    "samples": {
      "AcquisitionNumber": [1, 2, 3, 4, 5, 6, 7, 8, 9, 10, 11, 12, 13, 14, 15, 16, 17, 18, 19, 20, 21, 22, 23, 24, 25, 26, 27, 28, 29, 30, 31, 32, 33, 34, 35, 36, 37, 38, 39, 40, 41, 42, 43, 44, 45, 46, 47, 48, 49, 50, 51, 52, 53, 54, 55, 56, 57, 58, 59, 60, 61, 62, 63, 64, 65, 66, 67, 68, 69, 70, 71, 72, 73, 74, 75, 76, 77, 78, 79, 80, 81, 82, 83, 84, 85, 86, 87, 88, 89, 90, 91, 92, 93, 94, 95, 96, 97, 98, 99, 100, 101, 102, 103, 104, 105, 106, 107, 108, 109, 110, 111, 112, 113, 114, 115, 116, 117, 118, 119, 120, 121, 122, 123, 124, 125, 126, 127, 128, 129, 130, 131, 132, 133, 134, 135, 136, 137, 138, 139, 140, 141, 142, 143, 144, 145, 146, 147, 148, 149, 150, 151, 152, 153, 154, 155, 156, 157, 158, 159, 160, 161, 162, 163, 164, 165, 166, 167, 168, 169, 170, 171, 172, 173, 174, 175, 176, 177, 178, 179, 180, 181, 182, 183, 184, 185, 186, 187, 188, 189, 190, 191, 192, 193, 194, 195, 196, 197, 198, 199, 200, 201, 202, 203, 204, 205, 206, 207, 208, 209, 210, 211, 212, 213, 214, 215, 216, 217, 218, 219, 220, 221, 222, 223, 224, 225, 226, 227, 228, 229, 230, 231, 232, 233, 234, 235, 236, 237, 238, 239, 240, 241, 242, 243, 244, 245, 246, 247, 248, 249, 250, 251, 252, 253, 254, 255, 256, 257, 258, 259, 260, 261, 262, 263, 264, 265, 266, 267, 268, 269, 270, 271, 272, 273, 274, 275, 276, 277, 278, 279, 280, 281, 282, 283, 284, 285, 286, 287, 288, 289, 290, 291, 292, 293, 294, 295, 296, 297, 298, 299, 300, 301, 302, 303, 304, 305, 306, 307, 308, 309, 310, 311, 312, 313, 314, 315, 316, 317, 318, 319, 320, 321, 322, 323, 324, 325, 326, 327, 328, 329, 330],
      "AcquisitionTime": ["144635.165000", "144636.170000", "144637.172500", "144638.177500", "144639.182500", "144640.185000", "144641.190000", "144642.192500", "144643.197500", "144644.202500", "144645.205000", "144646.210000", "144647.212500", "144648.217500", "144649.222500", "144650.225000", "144651.230000", "144652.232500", "144653.237500", "144654.242500", "144655.245000", "144656.250000", "144657.252500", "144658.257500", "144659.262500", "144700.265000", "144701.270000", "144702.275000", "144703.277500", "144704.282500", "144705.285000", "144706.290000", "144707.295000", "144708.297500", "144709.302500", "144710.305000", "144711.310000", "144712.315000", "144713.317500", "144714.322500", "144715.325000", "144716.330000", "144717.335000", "144718.337500", "144719.342500", "144720.345000", "144721.350000", "144722.355000", "144723.357500", "144724.362500", "144725.365000", "144726.370000", "144727.375000", "144728.377500", "144729.382500", "144730.387500", "144731.390000", "144732.395000", "144733.397500", "144734.402500", "144735.407500", "144736.410000", "144737.415000", "144738.417500", "144739.422500", "144740.427500", "144741.430000", "144742.435000", "144743.437500", "144744.442500", "144745.447500", "144746.450000", "144747.455000", "144748.457500", "144749.462500", "144750.467500", "144751.470000", "144752.475000", "144753.477500", "144754.482500", "144755.487500", "144756.490000", "144757.495000", "144758.497500", "144759.502500", "144800.507500", "144801.510000", "144802.515000", "144803.520000", "144804.522500", "144805.527500", "144806.530000", "144807.535000", "144808.540000", "144809.542500", "144810.547500", "144811.550000", "144812.555000", "144813.560000", "144814.562500", "144815.567500", "144816.570000", "144817.575000", "144818.580000", "144819.582500", "144820.587500", "144821.590000", "144822.595000", "144823.600000", "144824.602500", "144825.607500", "144826.610000", "144827.615000", "144828.620000", "144829.622500", "144830.627500", "144831.632500", "144832.635000", "144833.640000", "144834.642500", "144835.647500", "144836.652500", "144837.655000", "144838.660000", "144839.662500", "144840.667500", "144841.672500", "144842.675000", "144843.680000", "144844.682500", "144845.687500", "144846.692500", "144847.695000", "144848.700000", "144849.702500", "144850.707500", "144851.712500", "144852.715000", "144853.720000", "144854.722500", "144855.727500", "144856.732500", "144857.735000", "144858.740000", "144859.742500", "144900.747500", "144901.752500", "144902.755000", "144903.760000", "144904.765000", "144905.767500", "144906.772500", "144907.775000", "144908.780000", "144909.785000", "144910.787500", "144911.792500", "144912.795000", "144913.800000", "144914.805000", "144915.807500", "144916.812500", "144917.815000", "144918.820000", "144919.825000", "144920.827500", "144921.832500", "144922.835000", "144923.840000", "144924.845000", "144925.847500", "144926.852500", "144927.855000", "144928.860000", "144929.865000", "144930.867500", "144931.872500", "144932.875000", "144933.880000", "144934.885000", "144935.887500", "144936.892500", "144937.897500", "144938.900000", "144939.905000", "144940.907500", "144941.912500", "144942.917500", "144943.920000", "144944.925000", "144945.927500", "144946.932500", "144947.937500", "144948.940000", "144949.945000", "144950.947500", "144951.952500", "144952.957500", "144953.960000", "144954.965000", "144955.967500", "144956.972500", "144957.977500", "144958.980000", "144959.985000", "145000.987500", "145001.992500", "145002.997500", "145004.000000", "145005.005000", "145006.010000", "145007.012500", "145008.017500", "145009.020000", "145010.025000", "145011.030000", "145012.032500", "145013.037500", "145014.040000", "145015.045000", "145016.050000", "145017.052500", "145018.057500", "145019.060000", "145020.065000", "145021.070000", "145022.072500", "145023.077500", "145024.080000", "145025.085000", "145026.090000", "145027.092500", "145028.097500", "145029.100000", "145030.105000", "145031.110000", "145032.112500", "145033.117500", "145034.120000", "145035.125000", "145036.130000", "145037.132500", "145038.137500", "145039.142500", "145040.145000", "145041.150000", "145042.152500", "145043.157500", "145044.162500", "145045.165000", "145046.170000", "145047.172500", "145048.177500", "145049.182500", "145050.185000", "145051.190000", "145052.192500", "145053.197500", "145054.202500", "145055.205000", "145056.210000", "145057.212500", "145058.217500", "145059.222500", "145100.225000", "145101.230000", "145102.232500", "145103.237500", "145104.242500", "145105.245000", "145106.250000", "145107.252500", "145108.257500", "145109.262500", "145110.265000", "145111.270000", "145112.275000", "145113.277500", "145114.282500", "145115.285000", "145116.290000", "145117.295000", "145118.297500", "145119.302500", "145120.305000", "145121.310000", "145122.315000", "145123.317500", "145124.322500", "145125.325000", "145126.330000", "145127.335000", "145128.337500", "145129.342500", "145130.345000", "145131.350000", "145132.355000", "145133.357500", "145134.362500", "145135.365000", "145136.370000", "145137.375000", "145138.377500", "145139.382500", "145140.387500", "145141.390000", "145142.395000", "145143.397500", "145144.402500", "145145.407500", "145146.410000", "145147.415000", "145148.417500", "145149.422500", "145150.427500", "145151.430000", "145152.435000", "145153.437500", "145154.442500", "145155.447500", "145156.450000", "145157.455000", "145158.457500", "145159.462500", "145200.467500", "145201.470000", "145202.475000", "145203.477500", "145204.482500", "145205.487500"],
      "ContentTime": ["144704.593000", "144704.593000", "144704.593000", "144704.593000", "144704.593000", "144704.609000", "144704.609000", "144704.609000", "144704.609000", "144704.609000", "144704.625000", "144704.625000", "144704.625000", "144704.625000", "144704.625000", "144704.625000", "144704.625000", "144704.640000", "144704.640000", "144704.640000", "144704.640000", "144704.640000", "144704.640000", "144704.640000", "144704.656000", "144704.656000", "144704.656000", "144704.656000", "144724.546000", "144724.562000", "144724.562000", "144724.562000", "144724.562000", "144724.562000", "144724.578000", "144724.578000", "144724.578000", "144724.578000", "144724.578000", "144724.578000", "144724.578000", "144724.578000", "144724.593000", "144724.593000", "144724.593000", "144724.593000", "144724.593000", "144724.609000", "144744.546000", "144744.562000", "144744.562000", "144744.562000", "144744.562000", "144744.562000", "144744.562000", "144744.562000", "144744.578000", "144744.578000", "144744.578000", "144744.578000", "144744.578000", "144744.578000", "144744.578000", "144744.593000", "144744.593000", "144744.593000", "144744.593000", "144744.593000", "144804.546000", "144804.562000", "144804.562000", "144804.562000", "144804.562000", "144804.562000", "144804.562000", "144804.562000", "144804.578000", "144804.578000", "144804.578000", "144804.578000", "144804.578000", "144804.593000", "144804.593000", "144804.593000", "144804.593000", "144804.593000", "144804.593000", "144804.593000", "144824.546000", "144824.562000", "144824.562000", "144824.562000", "144824.562000", "144824.562000", "144824.562000", "144824.562000", "144824.578000", "144824.578000", "144824.578000", "144824.578000", "144824.578000", "144824.578000", "144824.578000", "144824.593000", "144824.593000", "144824.593000", "144824.593000", "144824.593000", "144844.546000", "144844.562000", "144844.562000", "144844.562000", "144844.562000", "144844.562000", "144844.578000", "144844.578000", "144844.578000", "144844.578000", "144844.578000", "144844.578000", "144844.578000", "144844.593000", "144844.593000", "144844.593000", "144844.593000", "144844.593000", "144844.593000", "144844.593000", "144904.546000", "144904.562000", "144904.562000", "144904.562000", "144904.562000", "144904.562000", "144904.562000", "144904.562000", "144904.578000", "144904.578000", "144904.578000", "144904.578000", "144904.578000", "144904.578000", "144904.578000", "144904.593000", "144904.593000", "144904.593000", "144904.593000", "144904.593000", "144924.546000", "144924.562000", "144924.562000", "144924.562000", "144924.562000", "144924.562000", "144924.562000", "144924.562000", "144924.578000", "144924.578000", "144924.578000", "144924.578000", "144924.578000", "144924.578000", "144924.578000", "144924.593000", "144924.593000", "144924.593000", "144924.593000", "144924.593000", "144944.546000", "144944.562000", "144944.562000", "144944.562000", "144944.562000", "144944.578000", "144944.578000", "144944.578000", "144944.578000", "144944.578000", "144944.578000", "144944.578000", "144944.593000", "144944.593000", "144944.593000", "144944.593000", "144944.593000", "144944.593000", "144944.609000", "144944.609000", "145004.546000", "145004.562000", "145004.562000", "145004.562000", "145004.562000", "145004.562000", "145004.562000", "145004.562000", "145004.578000", "145004.578000", "145004.578000", "145004.578000", "145004.578000", "145004.578000", "145004.578000", "145004.578000", "145004.593000", "145004.593000", "145004.593000", "145004.593000", "145024.546000", "145024.562000", "145024.562000", "145024.562000", "145024.562000", "145024.562000", "145024.562000", "145024.562000", "145024.578000", "145024.578000", "145024.578000", "145024.578000", "145024.578000", "145024.593000", "145024.593000", "145024.593000", "145024.593000", "145024.593000", "145024.593000", "145024.593000", "145044.546000", "145044.562000", "145044.562000", "145044.562000", "145044.562000", "145044.578000", "145044.578000", "145044.578000", "145044.578000", "145044.578000", "145044.578000", "145044.578000", "145044.593000", "145044.593000", "145044.593000", "145044.593000", "145044.609000", "145044.609000", "145044.609000", "145044.609000", "145104.546000", "145104.562000", "145104.562000", "145104.562000", "145104.562000", "145104.562000", "145104.562000", "145104.562000", "145104.578000", "145104.578000", "145104.578000", "145104.578000", "145104.578000", "145104.578000", "145104.578000", "145104.593000", "145104.593000", "145104.593000", "145104.593000", "145104.593000", "145124.546000", "145124.562000", "145124.562000", "145124.562000", "145124.562000", "145124.562000", "145124.562000", "145124.562000", "145124.578000", "145124.578000", "145124.578000", "145124.593000", "145124.593000", "145124.593000", "145124.593000", "145124.593000", "145124.593000", "145124.593000", "145124.609000", "145124.609000", "145144.546000", "145144.562000", "145144.562000", "145144.562000", "145144.562000", "145144.562000", "145144.562000", "145144.562000", "145144.578000", "145144.578000", "145144.578000", "145144.578000", "145144.578000", "145144.578000", "145144.578000", "145144.593000", "145144.593000", "145144.593000", "145144.593000", "145144.593000", "145204.546000", "145204.562000", "145204.562000", "145204.562000", "145204.562000", "145204.562000", "145204.562000", "145204.562000", "145204.578000", "145204.578000", "145204.578000", "145204.578000", "145204.578000", "145204.578000", "145204.578000", "145204.593000", "145204.593000", "145204.593000", "145204.593000", "145204.593000", "145211.343000", "145211.343000"],
      "InstanceCreationTime": ["144704.593000", "144704.593000", "144704.593000", "144704.593000", "144704.593000", "144704.609000", "144704.609000", "144704.609000", "144704.609000", "144704.609000", "144704.625000", "144704.625000", "144704.625000", "144704.625000", "144704.625000", "144704.625000", "144704.625000", "144704.640000", "144704.640000", "144704.640000", "144704.640000", "144704.640000", "144704.640000", "144704.640000", "144704.656000", "144704.656000", "144704.656000", "144704.656000", "144724.546000", "144724.562000", "144724.562000", "144724.562000", "144724.562000", "144724.562000", "144724.578000", "144724.578000", "144724.578000", "144724.578000", "144724.578000", "144724.578000", "144724.578000", "144724.578000", "144724.593000", "144724.593000", "144724.593000", "144724.593000", "144724.593000", "144724.609000", "144744.546000", "144744.562000", "144744.562000", "144744.562000", "144744.562000", "144744.562000", "144744.562000", "144744.562000", "144744.578000", "144744.578000", "144744.578000", "144744.578000", "144744.578000", "144744.578000", "144744.578000", "144744.593000", "144744.593000", "144744.593000", "144744.593000", "144744.593000", "144804.546000", "144804.562000", "144804.562000", "144804.562000", "144804.562000", "144804.562000", "144804.562000", "144804.562000", "144804.578000", "144804.578000", "144804.578000", "144804.578000", "144804.578000", "144804.593000", "144804.593000", "144804.593000", "144804.593000", "144804.593000", "144804.593000", "144804.593000", "144824.546000", "144824.562000", "144824.562000", "144824.562000", "144824.562000", "144824.562000", "144824.562000", "144824.562000", "144824.578000", "144824.578000", "144824.578000", "144824.578000", "144824.578000", "144824.578000", "144824.578000", "144824.593000", "144824.593000", "144824.593000", "144824.593000", "144824.593000", "144844.546000", "144844.562000", "144844.562000", "144844.562000", "144844.562000", "144844.562000", "144844.578000", "144844.578000", "144844.578000", "144844.578000", "144844.578000", "144844.578000", "144844.578000", "144844.593000", "144844.593000", "144844.593000", "144844.593000", "144844.593000", "144844.593000", "144844.593000", "144904.546000", "144904.562000", "144904.562000", "144904.562000", "144904.562000", "144904.562000", "144904.562000", "144904.562000", "144904.578000", "144904.578000", "144904.578000", "144904.578000", "144904.578000", "144904.578000", "144904.578000", "144904.593000", "144904.593000", "144904.593000", "144904.593000", "144904.593000", "144924.546000", "144924.562000", "144924.562000", "144924.562000", "144924.562000", "144924.562000", "144924.562000", "144924.562000", "144924.578000", "144924.578000", "144924.578000", "144924.578000", "144924.578000", "144924.578000", "144924.578000", "144924.593000", "144924.593000", "144924.593000", "144924.593000", "144924.593000", "144944.546000", "144944.562000", "144944.562000", "144944.562000", "144944.562000", "144944.578000", "144944.578000", "144944.578000", "144944.578000", "144944.578000", "144944.578000", "144944.578000", "144944.593000", "144944.593000", "144944.593000", "144944.593000", "144944.593000", "144944.593000", "144944.609000", "144944.609000", "145004.546000", "145004.562000", "145004.562000", "145004.562000", "145004.562000", "145004.562000", "145004.562000", "145004.562000", "145004.578000", "145004.578000", "145004.578000", "145004.578000", "145004.578000", "145004.578000", "145004.578000", "145004.578000", "145004.593000", "145004.593000", "145004.593000", "145004.593000", "145024.546000", "145024.562000", "145024.562000", "145024.562000", "145024.562000", "145024.562000", "145024.562000", "145024.562000", "145024.578000", "145024.578000", "145024.578000", "145024.578000", "145024.578000", "145024.593000", "145024.593000", "145024.593000", "145024.593000", "145024.593000", "145024.593000", "145024.593000", "145044.546000", "145044.562000", "145044.562000", "145044.562000", "145044.562000", "145044.578000", "145044.578000", "145044.578000", "145044.578000", "145044.578000", "145044.578000", "145044.578000", "145044.593000", "145044.593000", "145044.593000", "145044.593000", "145044.609000", "145044.609000", "145044.609000", "145044.609000", "145104.546000", "145104.562000", "145104.562000", "145104.562000", "145104.562000", "145104.562000", "145104.562000", "145104.562000", "145104.578000", "145104.578000", "145104.578000", "145104.578000", "145104.578000", "145104.578000", "145104.578000", "145104.593000", "145104.593000", "145104.593000", "145104.593000", "145104.593000", "145124.546000", "145124.562000", "145124.562000", "145124.562000", "145124.562000", "145124.562000", "145124.562000", "145124.562000", "145124.578000", "145124.578000", "145124.578000", "145124.593000", "145124.593000", "145124.593000", "145124.593000", "145124.593000", "145124.593000", "145124.593000", "145124.609000", "145124.609000", "145144.546000", "145144.562000", "145144.562000", "145144.562000", "145144.562000", "145144.562000", "145144.562000", "145144.562000", "145144.578000", "145144.578000", "145144.578000", "145144.578000", "145144.578000", "145144.578000", "145144.578000", "145144.593000", "145144.593000", "145144.593000", "145144.593000", "145144.593000", "145204.546000", "145204.562000", "145204.562000", "145204.562000", "145204.562000", "145204.562000", "145204.562000", "145204.562000", "145204.578000", "145204.578000", "145204.578000", "145204.578000", "145204.578000", "145204.578000", "145204.578000", "145204.593000", "145204.593000", "145204.593000", "145204.593000", "145204.593000", "145211.343000", "145211.343000"],
      "InstanceNumber": [1, 2, 3, 4, 5, 6, 7, 8, 9, 10, 11, 12, 13, 14, 15, 16, 17, 18, 19, 20, 21, 22, 23, 24, 25, 26, 27, 28, 29, 30, 31, 32, 33, 34, 35, 36, 37, 38, 39, 40, 41, 42, 43, 44, 45, 46, 47, 48, 49, 50, 51, 52, 53, 54, 55, 56, 57, 58, 59, 60, 61, 62, 63, 64, 65, 66, 67, 68, 69, 70, 71, 72, 73, 74, 75, 76, 77, 78, 79, 80, 81, 82, 83, 84, 85, 86, 87, 88, 89, 90, 91, 92, 93, 94, 95, 96, 97, 98, 99, 100, 101, 102, 103, 104, 105, 106, 107, 108, 109, 110, 111, 112, 113, 114, 115, 116, 117, 118, 119, 120, 121, 122, 123, 124, 125, 126, 127, 128, 129, 130, 131, 132, 133, 134, 135, 136, 137, 138, 139, 140, 141, 142, 143, 144, 145, 146, 147, 148, 149, 150, 151, 152, 153, 154, 155, 156, 157, 158, 159, 160, 161, 162, 163, 164, 165, 166, 167, 168, 169, 170, 171, 172, 173, 174, 175, 176, 177, 178, 179, 180, 181, 182, 183, 184, 185, 186, 187, 188, 189, 190, 191, 192, 193, 194, 195, 196, 197, 198, 199, 200, 201, 202, 203, 204, 205, 206, 207, 208, 209, 210, 211, 212, 213, 214, 215, 216, 217, 218, 219, 220, 221, 222, 223, 224, 225, 226, 227, 228, 229, 230, 231, 232, 233, 234, 235, 236, 237, 238, 239, 240, 241, 242, 243, 244, 245, 246, 247, 248, 249, 250, 251, 252, 253, 254, 255, 256, 257, 258, 259, 260, 261, 262, 263, 264, 265, 266, 267, 268, 269, 270, 271, 272, 273, 274, 275, 276, 277, 278, 279, 280, 281, 282, 283, 284, 285, 286, 287, 288, 289, 290, 291, 292, 293, 294, 295, 296, 297, 298, 299, 300, 301, 302, 303, 304, 305, 306, 307, 308, 309, 310, 311, 312, 313, 314, 315, 316, 317, 318, 319, 320, 321, 322, 323, 324, 325, 326, 327, 328, 329, 330],
      "LargestImagePixelValue": [1686, 1661, 1620, 1623, 1639, 1609, 1602, 1589, 1582, 1626, 1602, 1618, 1634, 1639, 1645, 1621, 1636, 1635, 1649, 1631, 1644, 1633, 1691, 1633, 1599, 1618, 1619, 1605, 1636, 1616, 1622, 1623, 1619, 1627, 1615, 1616, 1639, 1613, 1619, 1611, 1595, 1604, 1620, 1600, 1634, 1613, 1602, 1614, 1616, 1611, 1605, 1614, 1695, 1626, 1669, 1690, 1690, 1677, 1661, 1666, 1715, 1708, 1677, 1697, 1720, 1728, 1740, 1721, 1726, 1719, 1746, 1746, 1700, 1714, 1740, 1752, 1708, 1670, 1732, 1754, 1737, 1725, 1710, 1763, 1756, 1723, 1665, 1639, 1611, 1640, 1584, 1602, 1618, 1642, 1581, 1604, 1563, 1615, 1623, 1670, 1659, 1657, 1613, 1615, 1633, 1649, 1604, 1572, 1637, 1634, 1697, 1637, 1603, 1624, 1667, 1651, 1599, 1625, 1636, 1635, 1635, 1613, 1635, 1620, 1636, 1641, 1638, 1644, 1735, 1707, 1724, 1716, 1709, 1686, 1639, 1700, 1728, 1735, 1746, 1676, 1686, 1719, 1726, 1725, 1604, 1717, 1745, 1700, 1685, 1709, 1731, 1723, 1698, 1709, 1726, 1729, 1724, 1696, 1705, 1740, 1726, 1722, 1722, 1712, 1720, 1722, 1676, 1687, 1723, 1713, 1711, 1684, 1703, 1700, 1711, 1716, 1731, 1728, 1724, 1729, 1735, 1732, 1734, 1735, 1732, 1720, 1705, 1674, 1693, 1650, 1652, 1667, 1655, 1645, 1659, 1627, 1648, 1637, 1608, 1665, 1648, 1649, 1673, 1648, 1624, 1651, 1647, 1664, 1653, 1677, 1719, 1745, 1709, 1699, 1640, 1590, 1670, 1617, 1620, 1654, 1653, 1681, 1674, 1612, 1611, 1632, 1649, 1655, 1640, 1632, 1620, 1654, 1696, 1647, 1602, 1609, 1629, 1654, 1647, 1643, 1648, 1664, 1635, 1642, 1656, 1607, 1633, 1617, 1643, 1641, 1635, 1631, 1622, 1616, 1632, 1639, 1635, 1648, 1624, 1642, 1618, 1640, 1619, 1601, 1614, 1582, 1678, 1666, 1667, 1664, 1670, 1643, 1662, 1635, 1589, 1624, 1647, 1654, 1680, 1645, 1636, 1645, 1641, 1639, 1637, 1617, 1649, 1621, 1637, 1642, 1652, 1653, 1653, 1650, 1582, 1670, 1704, 1671, 1655, 1686, 1669, 1666, 1640, 1573, 1628, 1657, 1602, 1605, 1677, 1687, 1647, 1610, 1593, 1640, 1631, 1598, 1594, 1569, 1610, 1610, 1608, 1579, 1587, 1599, 1595, 1586, 1611, 1569, 1591, 1592],
      "WindowCenter": [392.0, 391.0, 391.0, 391.0, 391.0, 391.0, 389.0, 389.0, 388.0, 390.0, 390.0, 392.0, 393.0, 394.0, 393.0, 392.0, 391.0, 389.0, 389.0, 391.0, 392.0, 394.0, 396.0, 396.0, 394.0, 393.0, 393.0, 391.0, 390.0, 389.0, 390.0, 390.0, 390.0, 390.0, 390.0, 390.0, 391.0, 390.0, 390.0, 389.0, 388.0, 388.0, 389.0, 389.0, 389.0, 390.0, 391.0, 390.0, 390.0, 389.0, 390.0, 390.0, 390.0, 391.0, 392.0, 394.0, 394.0, 394.0, 391.0, 391.0, 391.0, 390.0, 389.0, 390.0, 390.0, 391.0, 391.0, 390.0, 390.0, 391.0, 391.0, 391.0, 391.0, 391.0, 393.0, 394.0, 393.0, 391.0, 392.0, 393.0, 393.0, 391.0, 391.0, 390.0, 390.0, 391.0, 392.0, 392.0, 393.0, 394.0, 393.0, 392.0, 392.0, 391.0, 389.0, 389.0, 389.0, 389.0, 391.0, 392.0, 393.0, 393.0, 392.0, 391.0, 390.0, 390.0, 389.0, 391.0, 393.0, 395.0, 396.0, 394.0, 392.0, 392.0, 391.0, 391.0, 390.0, 389.0, 389.0, 389.0, 388.0, 388.0, 388.0, 388.0, 388.0, 388.0, 389.0, 391.0, 393.0, 394.0, 394.0, 393.0, 392.0, 391.0, 391.0, 393.0, 394.0, 396.0, 397.0, 396.0, 394.0, 394.0, 394.0, 393.0, 392.0, 394.0, 395.0, 395.0, 394.0, 394.0, 395.0, 395.0, 394.0, 394.0, 394.0, 394.0, 393.0, 392.0, 392.0, 393.0, 393.0, 392.0, 391.0, 391.0, 391.0, 391.0, 392.0, 393.0, 394.0, 394.0, 393.0, 391.0, 392.0, 392.0, 392.0, 392.0, 391.0, 391.0, 391.0, 392.0, 393.0, 394.0, 394.0, 395.0, 395.0, 394.0, 395.0, 395.0, 395.0, 394.0, 393.0, 393.0, 392.0, 391.0, 391.0, 391.0, 392.0, 392.0, 391.0, 392.0, 392.0, 393.0, 392.0, 391.0, 390.0, 390.0, 392.0, 392.0, 392.0, 391.0, 392.0, 392.0, 391.0, 391.0, 390.0, 390.0, 391.0, 393.0, 394.0, 395.0, 395.0, 396.0, 395.0, 393.0, 391.0, 391.0, 391.0, 390.0, 389.0, 390.0, 391.0, 393.0, 395.0, 393.0, 393.0, 393.0, 393.0, 395.0, 395.0, 395.0, 395.0, 394.0, 393.0, 391.0, 391.0, 391.0, 391.0, 392.0, 392.0, 393.0, 393.0, 392.0, 392.0, 392.0, 392.0, 392.0, 392.0, 393.0, 394.0, 393.0, 391.0, 391.0, 390.0, 391.0, 392.0, 391.0, 392.0, 394.0, 394.0, 393.0, 392.0, 392.0, 392.0, 390.0, 389.0, 389.0, 391.0, 393.0, 395.0, 394.0, 393.0, 393.0, 392.0, 392.0, 392.0, 391.0, 391.0, 392.0, 392.0, 393.0, 395.0, 395.0, 393.0, 392.0, 390.0, 391.0, 393.0, 392.0, 392.0, 393.0, 393.0, 392.0, 391.0, 390.0, 392.0, 393.0, 393.0, 392.0, 393.0, 393.0, 393.0, 392.0, 391.0, 391.0, 391.0, 390.0, 390.0, 390.0, 391.0, 392.0, 392.0, 391.0, 391.0, 391.0, 391.0, 390.0, 390.0, 389.0, 390.0, 391.0],
