{
  "AcquisitionMatrixPE": 104,
  "AcquisitionNumber": 1,
  "AcquisitionTime": "14:23:32.197500",
  "BandwidthPerPixelPhaseEncode": 43.054,
  "BaseResolution": 104,
  "CoilString": "C:E1_2",
  "ConversionSoftware": "dcm2niix",
  "ConversionSoftwareVersion": "v1.0.20191031",
  "DerivedVendorReportedEchoSpacing": 0.000669999,
  "DeviceSerialNumber": "18932",
  "DwellTime": 2.8e-06,
  "EchoTime": 0.02,
  "EffectiveEchoSpacing": 0.000223333,
  "FlipAngle": 30,
  "ImageComments": "Unaliased_MB2_PE2",
  "ImageOrientationPatientDICOM": [1, 0, 0, 0, 0.999816, -0.0191974],
  "ImageType": [
    "ORIGINAL",
    "PRIMARY",
    "M",
    "MB",
    "ND",
    "MOSAIC"
],
  "ImagingFrequency": 297.229,
  "InPlanePhaseEncodingDirectionDICOM": "COL",
  "InstitutionAddress": "Richmond_Street_North_1151_London_409EF2_Ontario_CA_N6A_5B7",
  "InstitutionName": "Robarts_Reserch_Institute",
  "InstitutionalDepartmentName": "Department",
  "MRAcquisitionType": "2D",
  "MagneticFieldStrength": 6.98,
  "Manufacturer": "Siemens",
  "ManufacturersModelName": "Investigational_Device_7T",
  "Modality": "MR",
  "MultibandAccelerationFactor": 2,
  "ParallelReductionFactorInPlane": 3,
  "PartialFourier": 0.875,
  "PatientPosition": "HFS",
  "PercentPhaseFOV": 100,
  "PhaseEncodingDirection": "j-",
  "PhaseEncodingSteps": 91,
  "PhaseResolution": 1,
  "PixelBandwidth": 1717,
  "ProcedureStepDescription": "Diedrichsen_SeqRep4",
  "ProtocolName": "mbep2d_bold_mb2_p3_AP_2iso",
  "PulseSequenceDetails": "%CustomerSeq%_cmrr_mbep2d_bold",
  "ReceiveCoilName": "CFMM_8Tx32Rx",
  "ReconMatrixPE": 104,
  "RefLinesPE": 36,
  "RepetitionTime": 1,
  "ScanOptions": "PFP_FS",
  "ScanningSequence": "EP",
  "SequenceName": "epfid2d1_104",
  "SequenceVariant": "SK_SS",
  "SeriesDescription": "mbep2d_bold_mb2_p3_AP_2iso",
  "SeriesNumber": 17,
  "ShimSetting": [24, 1989, 99, 1296, 204, 121, -70, -195],
  "SliceThickness": 2,
  "SliceTiming": [0, 0.2275, 0.455, 0.685, 0.9125, 0.1375, 0.365, 0.5925, 0.82, 0.045, 0.2725, 0.5025, 0.73, 0.9575, 0.1825, 0.41, 0.6375, 0.8675, 0.09, 0.32, 0.5475, 0.775, 0, 0.2275, 0.455, 0.685, 0.9125, 0.1375, 0.365, 0.5925, 0.82, 0.045, 0.2725, 0.5025, 0.73, 0.9575, 0.1825, 0.41, 0.6375, 0.8675, 0.09, 0.32, 0.5475, 0.775],
  "SoftwareVersions": "syngo_MR_B17",
  "SpacingBetweenSlices": 2,
  "StationName": "MASTER",
  "TaskName": "dsp",
  "TotalReadoutTime": 0.0230033,
  "TxRefAmp": 120,
  "dcmmeta_affine": [
    [-2.0, 0.0, 0.0, 105.4527816772461],
    [0.0, 1.999631404876709, -0.03839488327503204, -104.06344604492188],
    [0.0, 0.03839488327503204, 1.999631404876709, -13.038399696350098],
    [0.0, 0.0, 0.0, 1.0]
],
  "dcmmeta_reorient_transform": [
    [0.0, -1.0, 0.0, 103.0],
    [1.0, 0.0, 0.0, 0.0],
    [0.0, 0.0, 1.0, 0.0],
    [0.0, 0.0, 0.0, 1.0]
],
  "dcmmeta_shape": [104, 104, 44, 330],
  "dcmmeta_slice_dim": 2,
  "dcmmeta_version": 0.6,
  "global": {
    "const": {
      "AcquisitionMatrix": [104, 0, 0, 104],
      "AngioFlag": "N",
      "BitsAllocated": 16,
      "BitsStored": 12,
      "Columns": 728,
      "EchoNumbers": 1,
      "EchoTime": 20.0,
      "EchoTrainLength": 1,
      "FlipAngle": 30.0,
      "HighBit": 11,
      "ImageOrientationPatient": [1.0, 0.0, 0.0, 0.0, 0.99981571213624, -0.0191974416394],
      "ImagePositionPatient": [-729.45278453827, -725.78359141637, 2.8954772367172],
      "ImageType": [
        "ORIGINAL",
        "PRIMARY",
        "M",
        "MB",
        "ND",
        "MOSAIC"
],
      "ImagedNucleus": "1H",
      "ImagingFrequency": 297.228965,
      "InPlanePhaseEncodingDirection": "COL",
      "MRAcquisitionType": "2D",
      "MagneticFieldStrength": 6.98,
      "Manufacturer": "SIEMENS",
      "ManufacturerModelName": "Investigational_Device_7T",
      "Modality": "MR",
      "NumberOfAverages": 1.0,
      "NumberOfPhaseEncodingSteps": 91,
      "PercentPhaseFieldOfView": 100.0,
      "PercentSampling": 100.0,
      "PerformedProcedureStepStartTime": "135324.296000",
      "PhotometricInterpretation": "MONOCHROME2",
      "PixelBandwidth": 1717.0,
      "PixelRepresentation": 0,
      "PixelSpacing": [2.0, 2.0],
      "ProtocolName": "mbep2d_bold_mb2_p3_AP 2iso",
      "RepetitionTime": 1000.0,
      "Rows": 728,
      "SAR": 0.0,
      "SamplesPerPixel": 1,
      "ScanOptions": [
        "PFP",
        "FS"
],
      "ScanningSequence": "EP",
      "SequenceName": "epfid2d1_104",
      "SequenceVariant": [
        "SK",
        "SS"
],
      "SeriesDescription": "mbep2d_bold_mb2_p3_AP 2iso",
      "SeriesNumber": 17,
      "SeriesTime": "142404.578000",
      "SliceLocation": -11.038244503676,
      "SliceThickness": 2.0,
      "SmallestImagePixelValue": 0,
      "SoftwareVersions": "syngo MR B17",
      "SpacingBetweenSlices": 2.0000000361568,
      "SpecificCharacterSet": "ISO_IR 100",
      "StudyID": "1",
      "StudyTime": "135324.171000",
      "TransmitCoilName": "CFMM_8Tx32Rx",
      "VariableFlipAngleFlag": "N",
      "WindowCenterWidthExplanation": "Algo1",
      "dBdt": 0.0},
    "slices": {}
  },
  "time": {
    "samples": {
      "AcquisitionNumber": [1, 2, 3, 4, 5, 6, 7, 8, 9, 10, 11, 12, 13, 14, 15, 16, 17, 18, 19, 20, 21, 22, 23, 24, 25, 26, 27, 28, 29, 30, 31, 32, 33, 34, 35, 36, 37, 38, 39, 40, 41, 42, 43, 44, 45, 46, 47, 48, 49, 50, 51, 52, 53, 54, 55, 56, 57, 58, 59, 60, 61, 62, 63, 64, 65, 66, 67, 68, 69, 70, 71, 72, 73, 74, 75, 76, 77, 78, 79, 80, 81, 82, 83, 84, 85, 86, 87, 88, 89, 90, 91, 92, 93, 94, 95, 96, 97, 98, 99, 100, 101, 102, 103, 104, 105, 106, 107, 108, 109, 110, 111, 112, 113, 114, 115, 116, 117, 118, 119, 120, 121, 122, 123, 124, 125, 126, 127, 128, 129, 130, 131, 132, 133, 134, 135, 136, 137, 138, 139, 140, 141, 142, 143, 144, 145, 146, 147, 148, 149, 150, 151, 152, 153, 154, 155, 156, 157, 158, 159, 160, 161, 162, 163, 164, 165, 166, 167, 168, 169, 170, 171, 172, 173, 174, 175, 176, 177, 178, 179, 180, 181, 182, 183, 184, 185, 186, 187, 188, 189, 190, 191, 192, 193, 194, 195, 196, 197, 198, 199, 200, 201, 202, 203, 204, 205, 206, 207, 208, 209, 210, 211, 212, 213, 214, 215, 216, 217, 218, 219, 220, 221, 222, 223, 224, 225, 226, 227, 228, 229, 230, 231, 232, 233, 234, 235, 236, 237, 238, 239, 240, 241, 242, 243, 244, 245, 246, 247, 248, 249, 250, 251, 252, 253, 254, 255, 256, 257, 258, 259, 260, 261, 262, 263, 264, 265, 266, 267, 268, 269, 270, 271, 272, 273, 274, 275, 276, 277, 278, 279, 280, 281, 282, 283, 284, 285, 286, 287, 288, 289, 290, 291, 292, 293, 294, 295, 296, 297, 298, 299, 300, 301, 302, 303, 304, 305, 306, 307, 308, 309, 310, 311, 312, 313, 314, 315, 316, 317, 318, 319, 320, 321, 322, 323, 324, 325, 326, 327, 328, 329, 330],
      "AcquisitionTime": ["142332.197500", "142333.200000", "142334.205000", "142335.210000", "142336.212500", "142337.217500", "142338.222500", "142339.225000", "142340.230000", "142341.232500", "142342.237500", "142343.242500", "142344.245000", "142345.250000", "142346.252500", "142347.257500", "142348.262500", "142349.265000", "142350.270000", "142351.272500", "142352.277500", "142353.282500", "142354.285000", "142355.290000", "142356.292500", "142357.297500", "142358.302500", "142359.305000", "142400.310000", "142401.312500", "142402.317500", "142403.322500", "142404.325000", "142405.330000", "142406.335000", "142407.337500", "142408.342500", "142409.345000", "142410.350000", "142411.355000", "142412.357500", "142413.362500", "142414.365000", "142415.370000", "142416.375000", "142417.377500", "142418.382500", "142419.385000", "142420.390000", "142421.395000", "142422.397500", "142423.402500", "142424.405000", "142425.410000", "142426.415000", "142427.417500", "142428.422500", "142429.425000", "142430.430000", "142431.435000", "142432.437500", "142433.442500", "142434.445000", "142435.450000", "142436.455000", "142437.457500", "142438.462500", "142439.467500", "142440.470000", "142441.475000", "142442.477500", "142443.482500", "142444.487500", "142445.490000", "142446.495000", "142447.497500", "142448.502500", "142449.507500", "142450.510000", "142451.515000", "142452.517500", "142453.522500", "142454.527500", "142455.530000", "142456.535000", "142457.537500", "142458.542500", "142459.547500", "142500.550000", "142501.555000", "142502.557500", "142503.562500", "142504.567500", "142505.570000", "142506.575000", "142507.580000", "142508.582500", "142509.587500", "142510.590000", "142511.595000", "142512.600000", "142513.602500", "142514.607500", "142515.610000", "142516.615000", "142517.620000", "142518.622500", "142519.627500", "142520.630000", "142521.635000", "142522.640000", "142523.642500", "142524.647500", "142525.650000", "142526.655000", "142527.660000", "142528.662500", "142529.667500", "142530.670000", "142531.675000", "142532.680000", "142533.682500", "142534.687500", "142535.690000", "142536.695000", "142537.700000", "142538.702500", "142539.707500", "142540.712500", "142541.715000", "142542.720000", "142543.722500", "142544.727500", "142545.732500", "142546.735000", "142547.740000", "142548.742500", "142549.747500", "142550.752500", "142551.755000", "142552.760000", "142553.762500", "142554.767500", "142555.772500", "142556.775000", "142557.780000", "142558.782500", "142559.787500", "142600.792500", "142601.795000", "142602.800000", "142603.802500", "142604.807500", "142605.812500", "142606.815000", "142607.820000", "142608.822500", "142609.827500", "142610.832500", "142611.835000", "142612.840000", "142613.845000", "142614.847500", "142615.852500", "142616.855000", "142617.860000", "142618.865000", "142619.867500", "142620.872500", "142621.875000", "142622.880000", "142623.885000", "142624.887500", "142625.892500", "142626.895000", "142627.900000", "142628.905000", "142629.907500", "142630.912500", "142631.915000", "142632.920000", "142633.925000", "142634.927500", "142635.932500", "142636.935000", "142637.940000", "142638.945000", "142639.947500", "142640.952500", "142641.957500", "142642.960000", "142643.965000", "142644.967500", "142645.972500", "142646.977500", "142647.980000", "142648.985000", "142649.987500", "142650.992500", "142651.997500", "142653.000000", "142654.005000", "142655.007500", "142656.012500", "142657.017500", "142658.020000", "142659.025000", "142700.027500", "142701.032500", "142702.037500", "142703.040000", "142704.045000", "142705.047500", "142706.052500", "142707.057500", "142708.060000", "142709.065000", "142710.067500", "142711.072500", "142712.077500", "142713.080000", "142714.085000", "142715.090000", "142716.092500", "142717.097500", "142718.100000", "142719.105000", "142720.110000", "142721.112500", "142722.117500", "142723.120000", "142724.125000", "142725.130000", "142726.132500", "142727.137500", "142728.140000", "142729.145000", "142730.150000", "142731.152500", "142732.157500", "142733.160000", "142734.165000", "142735.170000", "142736.172500", "142737.177500", "142738.180000", "142739.185000", "142740.190000", "142741.192500", "142742.197500", "142743.200000", "142744.205000", "142745.210000", "142746.212500", "142747.217500", "142748.222500", "142749.225000", "142750.230000", "142751.232500", "142752.237500", "142753.242500", "142754.245000", "142755.250000", "142756.252500", "142757.257500", "142758.262500", "142759.265000", "142800.270000", "142801.272500", "142802.277500", "142803.282500", "142804.285000", "142805.290000", "142806.292500", "142807.297500", "142808.302500", "142809.305000", "142810.310000", "142811.312500", "142812.317500", "142813.322500", "142814.325000", "142815.330000", "142816.335000", "142817.337500", "142818.342500", "142819.345000", "142820.350000", "142821.355000", "142822.357500", "142823.362500", "142824.365000", "142825.370000", "142826.375000", "142827.377500", "142828.382500", "142829.385000", "142830.390000", "142831.395000", "142832.397500", "142833.402500", "142834.405000", "142835.410000", "142836.415000", "142837.417500", "142838.422500", "142839.425000", "142840.430000", "142841.435000", "142842.437500", "142843.442500", "142844.445000", "142845.450000", "142846.455000", "142847.457500", "142848.462500", "142849.467500", "142850.470000", "142851.475000", "142852.477500", "142853.482500", "142854.487500", "142855.490000", "142856.495000", "142857.497500", "142858.502500", "142859.507500", "142900.510000", "142901.515000", "142902.517500"],
      "ContentTime": ["142404.578000", "142404.578000", "142404.593000", "142404.593000", "142404.593000", "142404.593000", "142404.593000", "142404.609000", "142404.609000", "142404.609000", "142404.609000", "142404.609000", "142404.609000", "142404.609000", "142404.625000", "142404.625000", "142404.625000", "142404.625000", "142404.625000", "142404.640000", "142404.640000", "142404.640000", "142404.640000", "142404.640000", "142404.640000", "142404.640000", "142404.656000", "142404.656000", "142404.656000", "142404.656000", "142404.656000", "142424.546000", "142424.562000", "142424.562000", "142424.562000", "142424.562000", "142424.562000", "142424.578000", "142424.578000", "142424.578000", "142424.578000", "142424.578000", "142424.578000", "142424.578000", "142424.593000", "142424.593000", "142424.593000", "142424.593000", "142424.593000", "142424.593000", "142424.593000", "142444.546000", "142444.562000", "142444.562000", "142444.562000", "142444.562000", "142444.562000", "142444.562000", "142444.562000", "142444.578000", "142444.578000", "142444.578000", "142444.578000", "142444.578000", "142444.593000", "142444.593000", "142444.593000", "142444.593000", "142444.593000", "142444.593000", "142444.609000", "142504.546000", "142504.562000", "142504.562000", "142504.562000", "142504.562000", "142504.562000", "142504.578000", "142504.578000", "142504.578000", "142504.578000", "142504.578000", "142504.578000", "142504.578000", "142504.593000", "142504.593000", "142504.593000", "142504.593000", "142504.593000", "142504.593000", "142504.609000", "142524.546000", "142524.562000", "142524.562000", "142524.562000", "142524.562000", "142524.578000", "142524.578000", "142524.578000", "142524.578000", "142524.578000", "142524.578000", "142524.593000", "142524.593000", "142524.593000", "142524.593000", "142524.593000", "142524.593000", "142524.593000", "142524.593000", "142524.609000", "142544.546000", "142544.562000", "142544.562000", "142544.562000", "142544.562000", "142544.562000", "142544.562000", "142544.562000", "142544.578000", "142544.578000", "142544.578000", "142544.578000", "142544.578000", "142544.578000", "142544.578000", "142544.593000", "142544.593000", "142544.593000", "142544.593000", "142544.593000", "142604.546000", "142604.562000", "142604.562000", "142604.562000", "142604.562000", "142604.562000", "142604.562000", "142604.578000", "142604.578000", "142604.578000", "142604.578000", "142604.578000", "142604.578000", "142604.578000", "142604.593000", "142604.593000", "142604.593000", "142604.593000", "142604.593000", "142604.593000", "142624.546000", "142624.562000", "142624.562000", "142624.562000", "142624.562000", "142624.562000", "142624.578000", "142624.578000", "142624.578000", "142624.578000", "142624.578000", "142624.578000", "142624.593000", "142624.593000", "142624.593000", "142624.593000", "142624.609000", "142624.609000", "142624.609000", "142624.609000", "142644.546000", "142644.562000", "142644.562000", "142644.562000", "142644.562000", "142644.562000", "142644.578000", "142644.578000", "142644.578000", "142644.578000", "142644.578000", "142644.578000", "142644.593000", "142644.593000", "142644.593000", "142644.593000", "142644.593000", "142644.593000", "142644.593000", "142644.609000", "142704.546000", "142704.562000", "142704.562000", "142704.562000", "142704.578000", "142704.578000", "142704.578000", "142704.578000", "142704.578000", "142704.578000", "142704.593000", "142704.593000", "142704.593000", "142704.593000", "142704.593000", "142704.593000", "142704.593000", "142704.593000", "142704.609000", "142704.609000", "142724.546000", "142724.562000", "142724.562000", "142724.562000", "142724.562000", "142724.562000", "142724.562000", "142724.578000", "142724.578000", "142724.578000", "142724.578000", "142724.578000", "142724.578000", "142724.578000", "142724.593000", "142724.593000", "142724.593000", "142724.593000", "142724.593000", "142724.593000", "142744.546000", "142744.562000", "142744.562000", "142744.562000", "142744.562000", "142744.562000", "142744.562000", "142744.562000", "142744.578000", "142744.578000", "142744.578000", "142744.578000", "142744.578000", "142744.578000", "142744.578000", "142744.593000", "142744.593000", "142744.593000", "142744.593000", "142744.593000", "142804.546000", "142804.562000", "142804.562000", "142804.562000", "142804.562000", "142804.562000", "142804.562000", "142804.562000", "142804.578000", "142804.578000", "142804.578000", "142804.578000", "142804.578000", "142804.578000", "142804.593000", "142804.593000", "142804.593000", "142804.593000", "142804.593000", "142804.593000", "142824.546000", "142824.562000", "142824.562000", "142824.562000", "142824.562000", "142824.562000", "142824.562000", "142824.562000", "142824.578000", "142824.578000", "142824.578000", "142824.578000", "142824.578000", "142824.578000", "142824.578000", "142824.593000", "142824.593000", "142824.593000", "142824.593000", "142824.593000", "142844.546000", "142844.562000", "142844.562000", "142844.562000", "142844.562000", "142844.562000", "142844.562000", "142844.578000", "142844.578000", "142844.578000", "142844.578000", "142844.578000", "142844.578000", "142844.578000", "142844.593000", "142844.593000", "142844.593000", "142844.593000", "142844.593000", "142844.593000", "142907.796000", "142907.796000", "142907.796000", "142907.796000", "142907.812000", "142907.812000", "142907.812000", "142907.812000", "142907.812000", "142907.812000", "142907.812000", "142907.812000", "142907.828000", "142907.828000", "142907.828000", "142907.828000", "142907.843000", "142907.843000", "142907.843000"],
      "InstanceCreationTime": ["142404.578000", "142404.578000", "142404.593000", "142404.593000", "142404.593000", "142404.593000", "142404.593000", "142404.609000", "142404.609000", "142404.609000", "142404.609000", "142404.609000", "142404.609000", "142404.609000", "142404.625000", "142404.625000", "142404.625000", "142404.625000", "142404.625000", "142404.640000", "142404.640000", "142404.640000", "142404.640000", "142404.640000", "142404.640000", "142404.640000", "142404.656000", "142404.656000", "142404.656000", "142404.656000", "142404.656000", "142424.546000", "142424.562000", "142424.562000", "142424.562000", "142424.562000", "142424.562000", "142424.578000", "142424.578000", "142424.578000", "142424.578000", "142424.578000", "142424.578000", "142424.578000", "142424.593000", "142424.593000", "142424.593000", "142424.593000", "142424.593000", "142424.593000", "142424.593000", "142444.546000", "142444.562000", "142444.562000", "142444.562000", "142444.562000", "142444.562000", "142444.562000", "142444.562000", "142444.578000", "142444.578000", "142444.578000", "142444.578000", "142444.578000", "142444.593000", "142444.593000", "142444.593000", "142444.593000", "142444.593000", "142444.593000", "142444.609000", "142504.546000", "142504.562000", "142504.562000", "142504.562000", "142504.562000", "142504.562000", "142504.578000", "142504.578000", "142504.578000", "142504.578000", "142504.578000", "142504.578000", "142504.578000", "142504.593000", "142504.593000", "142504.593000", "142504.593000", "142504.593000", "142504.593000", "142504.609000", "142524.546000", "142524.562000", "142524.562000", "142524.562000", "142524.562000", "142524.578000", "142524.578000", "142524.578000", "142524.578000", "142524.578000", "142524.578000", "142524.593000", "142524.593000", "142524.593000", "142524.593000", "142524.593000", "142524.593000", "142524.593000", "142524.593000", "142524.609000", "142544.546000", "142544.562000", "142544.562000", "142544.562000", "142544.562000", "142544.562000", "142544.562000", "142544.562000", "142544.578000", "142544.578000", "142544.578000", "142544.578000", "142544.578000", "142544.578000", "142544.578000", "142544.593000", "142544.593000", "142544.593000", "142544.593000", "142544.593000", "142604.546000", "142604.562000", "142604.562000", "142604.562000", "142604.562000", "142604.562000", "142604.562000", "142604.578000", "142604.578000", "142604.578000", "142604.578000", "142604.578000", "142604.578000", "142604.578000", "142604.593000", "142604.593000", "142604.593000", "142604.593000", "142604.593000", "142604.593000", "142624.546000", "142624.562000", "142624.562000", "142624.562000", "142624.562000", "142624.562000", "142624.578000", "142624.578000", "142624.578000", "142624.578000", "142624.578000", "142624.578000", "142624.593000", "142624.593000", "142624.593000", "142624.593000", "142624.609000", "142624.609000", "142624.609000", "142624.609000", "142644.546000", "142644.562000", "142644.562000", "142644.562000", "142644.562000", "142644.562000", "142644.578000", "142644.578000", "142644.578000", "142644.578000", "142644.578000", "142644.578000", "142644.593000", "142644.593000", "142644.593000", "142644.593000", "142644.593000", "142644.593000", "142644.593000", "142644.609000", "142704.546000", "142704.562000", "142704.562000", "142704.562000", "142704.578000", "142704.578000", "142704.578000", "142704.578000", "142704.578000", "142704.578000", "142704.593000", "142704.593000", "142704.593000", "142704.593000", "142704.593000", "142704.593000", "142704.593000", "142704.593000", "142704.609000", "142704.609000", "142724.546000", "142724.562000", "142724.562000", "142724.562000", "142724.562000", "142724.562000", "142724.562000", "142724.578000", "142724.578000", "142724.578000", "142724.578000", "142724.578000", "142724.578000", "142724.578000", "142724.593000", "142724.593000", "142724.593000", "142724.593000", "142724.593000", "142724.593000", "142744.546000", "142744.562000", "142744.562000", "142744.562000", "142744.562000", "142744.562000", "142744.562000", "142744.562000", "142744.578000", "142744.578000", "142744.578000", "142744.578000", "142744.578000", "142744.578000", "142744.578000", "142744.593000", "142744.593000", "142744.593000", "142744.593000", "142744.593000", "142804.546000", "142804.562000", "142804.562000", "142804.562000", "142804.562000", "142804.562000", "142804.562000", "142804.562000", "142804.578000", "142804.578000", "142804.578000", "142804.578000", "142804.578000", "142804.578000", "142804.593000", "142804.593000", "142804.593000", "142804.593000", "142804.593000", "142804.593000", "142824.546000", "142824.562000", "142824.562000", "142824.562000", "142824.562000", "142824.562000", "142824.562000", "142824.562000", "142824.578000", "142824.578000", "142824.578000", "142824.578000", "142824.578000", "142824.578000", "142824.578000", "142824.593000", "142824.593000", "142824.593000", "142824.593000", "142824.593000", "142844.546000", "142844.562000", "142844.562000", "142844.562000", "142844.562000", "142844.562000", "142844.562000", "142844.578000", "142844.578000", "142844.578000", "142844.578000", "142844.578000", "142844.578000", "142844.578000", "142844.593000", "142844.593000", "142844.593000", "142844.593000", "142844.593000", "142844.593000", "142907.796000", "142907.796000", "142907.796000", "142907.796000", "142907.812000", "142907.812000", "142907.812000", "142907.812000", "142907.812000", "142907.812000", "142907.812000", "142907.812000", "142907.828000", "142907.828000", "142907.828000", "142907.828000", "142907.843000", "142907.843000", "142907.843000"],
      "InstanceNumber": [1, 2, 3, 4, 5, 6, 7, 8, 9, 10, 11, 12, 13, 14, 15, 16, 17, 18, 19, 20, 21, 22, 23, 24, 25, 26, 27, 28, 29, 30, 31, 32, 33, 34, 35, 36, 37, 38, 39, 40, 41, 42, 43, 44, 45, 46, 47, 48, 49, 50, 51, 52, 53, 54, 55, 56, 57, 58, 59, 60, 61, 62, 63, 64, 65, 66, 67, 68, 69, 70, 71, 72, 73, 74, 75, 76, 77, 78, 79, 80, 81, 82, 83, 84, 85, 86, 87, 88, 89, 90, 91, 92, 93, 94, 95, 96, 97, 98, 99, 100, 101, 102, 103, 104, 105, 106, 107, 108, 109, 110, 111, 112, 113, 114, 115, 116, 117, 118, 119, 120, 121, 122, 123, 124, 125, 126, 127, 128, 129, 130, 131, 132, 133, 134, 135, 136, 137, 138, 139, 140, 141, 142, 143, 144, 145, 146, 147, 148, 149, 150, 151, 152, 153, 154, 155, 156, 157, 158, 159, 160, 161, 162, 163, 164, 165, 166, 167, 168, 169, 170, 171, 172, 173, 174, 175, 176, 177, 178, 179, 180, 181, 182, 183, 184, 185, 186, 187, 188, 189, 190, 191, 192, 193, 194, 195, 196, 197, 198, 199, 200, 201, 202, 203, 204, 205, 206, 207, 208, 209, 210, 211, 212, 213, 214, 215, 216, 217, 218, 219, 220, 221, 222, 223, 224, 225, 226, 227, 228, 229, 230, 231, 232, 233, 234, 235, 236, 237, 238, 239, 240, 241, 242, 243, 244, 245, 246, 247, 248, 249, 250, 251, 252, 253, 254, 255, 256, 257, 258, 259, 260, 261, 262, 263, 264, 265, 266, 267, 268, 269, 270, 271, 272, 273, 274, 275, 276, 277, 278, 279, 280, 281, 282, 283, 284, 285, 286, 287, 288, 289, 290, 291, 292, 293, 294, 295, 296, 297, 298, 299, 300, 301, 302, 303, 304, 305, 306, 307, 308, 309, 310, 311, 312, 313, 314, 315, 316, 317, 318, 319, 320, 321, 322, 323, 324, 325, 326, 327, 328, 329, 330],
      "LargestImagePixelValue": [1726, 1698, 1710, 1721, 1701, 1682, 1696, 1719, 1697, 1684, 1703, 1691, 1668, 1700, 1740, 1694, 1702, 1723, 1710, 1700, 1694, 1695, 1705, 1717, 1697, 1707, 1693, 1707, 1698, 1724, 1719, 1702, 1700, 1718, 1710, 1736, 1716, 1774, 1749, 1730, 1771, 1767, 1730, 1713, 1703, 1673, 1708, 1725, 1693, 1709, 1673, 1679, 1696, 1687, 1675, 1673, 1687, 1714, 1701, 1707, 1696, 1662, 1689, 1676, 1660, 1665, 1651, 1712, 1703, 1678, 1683, 1670, 1643, 1666, 1682, 1712, 1689, 1649, 1682, 1689, 1659, 1646, 1667, 1659, 1647, 1655, 1642, 1628, 1665, 1652, 1637, 1685, 1699, 1662, 1655, 1680, 1718, 1681, 1659, 1635, 1651, 1636, 1669, 1677, 1690, 1660, 1670, 1663, 1661, 1642, 1638, 1626, 1658, 1666, 1661, 1651, 1679, 1678, 1678, 1679, 1660, 1642, 1624, 1689, 1706, 1700, 1643, 1666, 1657, 1667, 1665, 1674, 1657, 1654, 1671, 1673, 1657, 1655, 1645, 1670, 1662, 1657, 1688, 1664, 1703, 1662, 1637, 1652, 1656, 1665, 1643, 1624, 1701, 1698, 1687, 1685, 1667, 1684, 1691, 1671, 1666, 1648, 1641, 1663, 1692, 1668, 1633, 1630, 1649, 1618, 1655, 1624, 1612, 1670, 1649, 1636, 1669, 1679, 1671, 1676, 1637, 1709, 1669, 1664, 1676, 1693, 1695, 1667, 1683, 1699, 1679, 1676, 1705, 1679, 1676, 1665, 1652, 1626, 1684, 1646, 1684, 1679, 1656, 1664, 1672, 1657, 1659, 1661, 1681, 1704, 1693, 1658, 1705, 1678, 1755, 1697, 1654, 1677, 1739, 1688, 1688, 1699, 1680, 1682, 1706, 1679, 1634, 1656, 1701, 1708, 1672, 1680, 1742, 1706, 1678, 1687, 1711, 1716, 1677, 1708, 1685, 1732, 1728, 1636, 1661, 1699, 1697, 1742, 1703, 1705, 1619, 1686, 1702, 1672, 1663, 1684, 1707, 1649, 1670, 1717, 1716, 1669, 1686, 1721, 1691, 1706, 1697, 1669, 1697, 1758, 1701, 1636, 1700, 1678, 1704, 1688, 1690, 1676, 1645, 1647, 1639, 1658, 1647, 1666, 1660, 1659, 1711, 1654, 1671, 1672, 1709, 1676, 1688, 1697, 1665, 1678, 1675, 1724, 1698, 1671, 1690, 1683, 1714, 1692, 1713, 1708, 1676, 1719, 1694, 1645, 1661, 1712, 1696, 1687, 1684, 1732, 1688, 1662, 1709, 1702, 1679, 1708, 1718, 1683, 1688, 1722, 1705, 1707, 1686, 1662],
      "WindowCenter": [398.0, 397.0, 396.0, 395.0, 396.0, 396.0, 397.0, 396.0, 396.0, 396.0, 398.0, 397.0, 396.0, 396.0, 396.0, 396.0, 396.0, 395.0, 394.0, 394.0, 394.0, 395.0, 395.0, 395.0, 394.0, 393.0, 394.0, 394.0, 394.0, 395.0, 395.0, 396.0, 397.0, 398.0, 398.0, 397.0, 397.0, 397.0, 398.0, 399.0, 400.0, 399.0, 399.0, 397.0, 396.0, 395.0, 394.0, 395.0, 395.0, 395.0, 394.0, 394.0, 395.0, 395.0, 395.0, 394.0, 395.0, 397.0, 397.0, 397.0, 396.0, 395.0, 394.0, 394.0, 393.0, 394.0, 395.0, 397.0, 397.0, 396.0, 395.0, 395.0, 395.0, 396.0, 397.0, 397.0, 397.0, 395.0, 395.0, 395.0, 395.0, 394.0, 395.0, 395.0, 395.0, 395.0, 394.0, 394.0, 395.0, 395.0, 395.0, 397.0, 398.0, 398.0, 397.0, 398.0, 398.0, 396.0, 396.0, 395.0, 396.0, 396.0, 396.0, 397.0, 398.0, 398.0, 396.0, 395.0, 395.0, 393.0, 393.0, 393.0, 394.0, 395.0, 396.0, 397.0, 397.0, 398.0, 397.0, 396.0, 396.0, 396.0, 396.0, 398.0, 398.0, 398.0, 397.0, 396.0, 396.0, 396.0, 396.0, 396.0, 397.0, 396.0, 396.0, 395.0, 395.0, 395.0, 395.0, 395.0, 396.0, 398.0, 398.0, 396.0, 396.0, 394.0, 394.0, 395.0, 396.0, 397.0, 397.0, 397.0, 397.0, 396.0, 397.0, 398.0, 398.0, 396.0, 396.0, 395.0, 395.0, 394.0, 393.0, 393.0, 394.0, 395.0, 396.0, 396.0, 394.0, 393.0, 394.0, 394.0, 395.0, 396.0, 395.0, 395.0, 395.0, 394.0, 394.0, 394.0, 395.0, 397.0, 397.0, 397.0, 396.0, 396.0, 395.0, 396.0, 397.0, 398.0, 398.0, 397.0, 396.0, 395.0, 394.0, 394.0, 394.0, 393.0, 393.0, 392.0, 394.0, 394.0, 395.0, 396.0, 396.0, 396.0, 395.0, 396.0, 396.0, 397.0, 397.0, 398.0, 398.0, 397.0, 398.0, 398.0, 398.0, 397.0, 397.0, 396.0, 396.0, 397.0, 396.0, 396.0, 396.0, 396.0, 398.0, 399.0, 398.0, 397.0, 396.0, 396.0, 396.0, 396.0, 396.0, 396.0, 396.0, 396.0, 394.0, 395.0, 395.0, 395.0, 396.0, 397.0, 398.0, 399.0, 398.0, 396.0, 395.0, 395.0, 394.0, 394.0, 395.0, 396.0, 396.0, 396.0, 396.0, 396.0, 396.0, 397.0, 398.0, 397.0, 397.0, 396.0, 396.0, 396.0, 395.0, 394.0, 395.0, 396.0, 398.0, 400.0, 401.0, 398.0, 396.0, 395.0, 394.0, 393.0, 392.0, 391.0, 391.0, 392.0, 392.0, 393.0, 393.0, 393.0, 393.0, 393.0, 395.0, 395.0, 397.0, 396.0, 397.0, 397.0, 395.0, 395.0, 394.0, 395.0, 395.0, 398.0, 399.0, 399.0, 399.0, 399.0, 399.0, 398.0, 397.0, 397.0, 398.0, 398.0, 399.0, 400.0, 400.0, 399.0, 397.0, 397.0, 396.0, 396.0, 397.0, 397.0, 398.0, 398.0, 397.0, 396.0, 396.0, 396.0, 396.0, 396.0, 396.0, 397.0],
