{
  "AcquisitionMatrixPE": 104,
  "AcquisitionNumber": 1,
  "AcquisitionTime": "14:17:2.152500",
  "BandwidthPerPixelPhaseEncode": 43.054,
  "BaseResolution": 104,
  "CoilString": "C:E1_2",
  "ConversionSoftware": "dcm2niix",
  "ConversionSoftwareVersion": "v1.0.20191031",
  "DerivedVendorReportedEchoSpacing": 0.000669999,
  "DeviceSerialNumber": "18932",
  "DwellTime": 2.8e-06,
  "EchoTime": 0.02,
  "EffectiveEchoSpacing": 0.000223333,
  "FlipAngle": 30,
  "ImageComments": "Unaliased_MB2_PE2",
  "ImageOrientationPatientDICOM": [1, 0, 0, 0, 0.999816, -0.0191974],
  "ImageType": [
    "ORIGINAL",
    "PRIMARY",
    "M",
    "MB",
    "ND",
    "MOSAIC"
],
  "ImagingFrequency": 297.229,
  "InPlanePhaseEncodingDirectionDICOM": "COL",
  "InstitutionAddress": "Richmond_Street_North_1151_London_409EF2_Ontario_CA_N6A_5B7",
  "InstitutionName": "Robarts_Reserch_Institute",
  "InstitutionalDepartmentName": "Department",
  "MRAcquisitionType": "2D",
  "MagneticFieldStrength": 6.98,
  "Manufacturer": "Siemens",
  "ManufacturersModelName": "Investigational_Device_7T",
  "Modality": "MR",
  "MultibandAccelerationFactor": 2,
  "ParallelReductionFactorInPlane": 3,
  "PartialFourier": 0.875,
  "PatientPosition": "HFS",
  "PercentPhaseFOV": 100,
  "PhaseEncodingDirection": "j-",
  "PhaseEncodingSteps": 91,
  "PhaseResolution": 1,
  "PixelBandwidth": 1717,
  "ProcedureStepDescription": "Diedrichsen_SeqRep4",
  "ProtocolName": "mbep2d_bold_mb2_p3_AP_2iso",
  "PulseSequenceDetails": "%CustomerSeq%_cmrr_mbep2d_bold",
  "ReceiveCoilName": "CFMM_8Tx32Rx",
  "ReconMatrixPE": 104,
  "RefLinesPE": 36,
  "RepetitionTime": 1,
  "ScanOptions": "PFP_FS",
  "ScanningSequence": "EP",
  "SequenceName": "epfid2d1_104",
  "SequenceVariant": "SK_SS",
  "SeriesDescription": "mbep2d_bold_mb2_p3_AP_2iso",
  "SeriesNumber": 15,
  "ShimSetting": [24, 1989, 99, 1296, 204, 121, -70, -195],
  "SliceThickness": 2,
  "SliceTiming": [0, 0.23, 0.4575, 0.685, 0.9125, 0.1375, 0.365, 0.595, 0.8225, 0.0475, 0.275, 0.5025, 0.73, 0.9575, 0.1825, 0.4125, 0.64, 0.8675, 0.0925, 0.32, 0.5475, 0.7775, 0, 0.23, 0.4575, 0.685, 0.9125, 0.1375, 0.365, 0.595, 0.8225, 0.0475, 0.275, 0.5025, 0.73, 0.9575, 0.1825, 0.4125, 0.64, 0.8675, 0.0925, 0.32, 0.5475, 0.7775],
  "SoftwareVersions": "syngo_MR_B17",
  "SpacingBetweenSlices": 2,
  "StationName": "MASTER",
  "TaskName": "dsp",
  "TotalReadoutTime": 0.0230033,
  "TxRefAmp": 120,
  "dcmmeta_affine": [
    [-2.0, 0.0, 0.0, 105.4527816772461],
    [0.0, 1.999631404876709, -0.03839488327503204, -104.06344604492188],
    [0.0, 0.03839488327503204, 1.999631404876709, -13.038399696350098],
    [0.0, 0.0, 0.0, 1.0]
],
  "dcmmeta_reorient_transform": [
    [0.0, -1.0, 0.0, 103.0],
    [1.0, 0.0, 0.0, 0.0],
    [0.0, 0.0, 1.0, 0.0],
    [0.0, 0.0, 0.0, 1.0]
],
  "dcmmeta_shape": [104, 104, 44, 330],
  "dcmmeta_slice_dim": 2,
  "dcmmeta_version": 0.6,
  "global": {
    "const": {
      "AcquisitionMatrix": [104, 0, 0, 104],
      "AngioFlag": "N",
      "BitsAllocated": 16,
      "BitsStored": 12,
      "Columns": 728,
      "EchoNumbers": 1,
      "EchoTime": 20.0,
      "EchoTrainLength": 1,
      "FlipAngle": 30.0,
      "HighBit": 11,
      "ImageOrientationPatient": [1.0, 0.0, 0.0, 0.0, 0.99981571213624, -0.0191974416394],
      "ImagePositionPatient": [-729.45278453827, -725.78359141637, 2.8954772367172],
      "ImageType": [
        "ORIGINAL",
        "PRIMARY",
        "M",
        "MB",
        "ND",
        "MOSAIC"
],
      "ImagedNucleus": "1H",
      "ImagingFrequency": 297.228931,
      "InPlanePhaseEncodingDirection": "COL",
      "MRAcquisitionType": "2D",
      "MagneticFieldStrength": 6.98,
      "Manufacturer": "SIEMENS",
      "ManufacturerModelName": "Investigational_Device_7T",
      "Modality": "MR",
      "NumberOfAverages": 1.0,
      "NumberOfPhaseEncodingSteps": 91,
      "PercentPhaseFieldOfView": 100.0,
      "PercentSampling": 100.0,
      "PerformedProcedureStepStartTime": "135324.296000",
      "PhotometricInterpretation": "MONOCHROME2",
      "PixelBandwidth": 1717.0,
      "PixelRepresentation": 0,
      "PixelSpacing": [2.0, 2.0],
      "ProtocolName": "mbep2d_bold_mb2_p3_AP 2iso",
      "RepetitionTime": 1000.0,
      "Rows": 728,
      "SAR": 0.0,
      "SamplesPerPixel": 1,
      "ScanOptions": [
        "PFP",
        "FS"
],
      "ScanningSequence": "EP",
      "SequenceName": "epfid2d1_104",
      "SequenceVariant": [
        "SK",
        "SS"
],
      "SeriesDescription": "mbep2d_bold_mb2_p3_AP 2iso",
      "SeriesNumber": 15,
      "SeriesTime": "141730.171000",
      "SliceLocation": -11.038244503676,
      "SliceThickness": 2.0,
      "SmallestImagePixelValue": 0,
      "SoftwareVersions": "syngo MR B17",
      "SpacingBetweenSlices": 2.0000000361568,
      "SpecificCharacterSet": "ISO_IR 100",
      "StudyID": "1",
      "StudyTime": "135324.171000",
      "TransmitCoilName": "CFMM_8Tx32Rx",
      "VariableFlipAngleFlag": "N",
      "WindowCenterWidthExplanation": "Algo1",
      "dBdt": 0.0},
    "slices": {}
  },
  "time": {
    "samples": {
      "AcquisitionNumber": [1, 2, 3, 4, 5, 6, 7, 8, 9, 10, 11, 12, 13, 14, 15, 16, 17, 18, 19, 20, 21, 22, 23, 24, 25, 26, 27, 28, 29, 30, 31, 32, 33, 34, 35, 36, 37, 38, 39, 40, 41, 42, 43, 44, 45, 46, 47, 48, 49, 50, 51, 52, 53, 54, 55, 56, 57, 58, 59, 60, 61, 62, 63, 64, 65, 66, 67, 68, 69, 70, 71, 72, 73, 74, 75, 76, 77, 78, 79, 80, 81, 82, 83, 84, 85, 86, 87, 88, 89, 90, 91, 92, 93, 94, 95, 96, 97, 98, 99, 100, 101, 102, 103, 104, 105, 106, 107, 108, 109, 110, 111, 112, 113, 114, 115, 116, 117, 118, 119, 120, 121, 122, 123, 124, 125, 126, 127, 128, 129, 130, 131, 132, 133, 134, 135, 136, 137, 138, 139, 140, 141, 142, 143, 144, 145, 146, 147, 148, 149, 150, 151, 152, 153, 154, 155, 156, 157, 158, 159, 160, 161, 162, 163, 164, 165, 166, 167, 168, 169, 170, 171, 172, 173, 174, 175, 176, 177, 178, 179, 180, 181, 182, 183, 184, 185, 186, 187, 188, 189, 190, 191, 192, 193, 194, 195, 196, 197, 198, 199, 200, 201, 202, 203, 204, 205, 206, 207, 208, 209, 210, 211, 212, 213, 214, 215, 216, 217, 218, 219, 220, 221, 222, 223, 224, 225, 226, 227, 228, 229, 230, 231, 232, 233, 234, 235, 236, 237, 238, 239, 240, 241, 242, 243, 244, 245, 246, 247, 248, 249, 250, 251, 252, 253, 254, 255, 256, 257, 258, 259, 260, 261, 262, 263, 264, 265, 266, 267, 268, 269, 270, 271, 272, 273, 274, 275, 276, 277, 278, 279, 280, 281, 282, 283, 284, 285, 286, 287, 288, 289, 290, 291, 292, 293, 294, 295, 296, 297, 298, 299, 300, 301, 302, 303, 304, 305, 306, 307, 308, 309, 310, 311, 312, 313, 314, 315, 316, 317, 318, 319, 320, 321, 322, 323, 324, 325, 326, 327, 328, 329, 330],
      "AcquisitionTime": ["141702.152500", "141703.157500", "141704.162500", "141705.165000", "141706.170000", "141707.172500", "141708.177500", "141709.182500", "141710.185000", "141711.190000", "141712.192500", "141713.197500", "141714.202500", "141715.205000", "141716.210000", "141717.212500", "141718.217500", "141719.222500", "141720.225000", "141721.230000", "141722.232500", "141723.237500", "141724.242500", "141725.245000", "141726.250000", "141727.252500", "141728.257500", "141729.262500", "141730.265000", "141731.270000", "141732.275000", "141733.277500", "141734.282500", "141735.285000", "141736.290000", "141737.295000", "141738.297500", "141739.302500", "141740.305000", "141741.310000", "141742.315000", "141743.317500", "141744.322500", "141745.325000", "141746.330000", "141747.335000", "141748.337500", "141749.342500", "141750.345000", "141751.350000", "141752.355000", "141753.357500", "141754.362500", "141755.365000", "141756.370000", "141757.375000", "141758.377500", "141759.382500", "141800.387500", "141801.390000", "141802.395000", "141803.397500", "141804.402500", "141805.407500", "141806.410000", "141807.415000", "141808.417500", "141809.422500", "141810.427500", "141811.430000", "141812.435000", "141813.437500", "141814.442500", "141815.447500", "141816.450000", "141817.455000", "141818.457500", "141819.462500", "141820.467500", "141821.470000", "141822.475000", "141823.477500", "141824.482500", "141825.487500", "141826.490000", "141827.495000", "141828.497500", "141829.502500", "141830.507500", "141831.510000", "141832.515000", "141833.520000", "141834.522500", "141835.527500", "141836.530000", "141837.535000", "141838.540000", "141839.542500", "141840.547500", "141841.550000", "141842.555000", "141843.560000", "141844.562500", "141845.567500", "141846.570000", "141847.575000", "141848.580000", "141849.582500", "141850.587500", "141851.590000", "141852.595000", "141853.600000", "141854.602500", "141855.607500", "141856.610000", "141857.615000", "141858.620000", "141859.622500", "141900.627500", "141901.632500", "141902.635000", "141903.640000", "141904.642500", "141905.647500", "141906.652500", "141907.655000", "141908.660000", "141909.662500", "141910.667500", "141911.672500", "141912.675000", "141913.680000", "141914.682500", "141915.687500", "141916.692500", "141917.695000", "141918.700000", "141919.702500", "141920.707500", "141921.712500", "141922.715000", "141923.720000", "141924.722500", "141925.727500", "141926.732500", "141927.735000", "141928.740000", "141929.742500", "141930.747500", "141931.752500", "141932.755000", "141933.760000", "141934.765000", "141935.767500", "141936.772500", "141937.775000", "141938.780000", "141939.785000", "141940.787500", "141941.792500", "141942.795000", "141943.800000", "141944.805000", "141945.807500", "141946.812500", "141947.815000", "141948.820000", "141949.825000", "141950.827500", "141951.832500", "141952.835000", "141953.840000", "141954.845000", "141955.847500", "141956.852500", "141957.855000", "141958.860000", "141959.865000", "142000.867500", "142001.872500", "142002.875000", "142003.880000", "142004.885000", "142005.887500", "142006.892500", "142007.897500", "142008.900000", "142009.905000", "142010.907500", "142011.912500", "142012.917500", "142013.920000", "142014.925000", "142015.927500", "142016.932500", "142017.937500", "142018.940000", "142019.945000", "142020.947500", "142021.952500", "142022.957500", "142023.960000", "142024.965000", "142025.967500", "142026.972500", "142027.977500", "142028.980000", "142029.985000", "142030.987500", "142031.992500", "142032.997500", "142034.000000", "142035.005000", "142036.010000", "142037.012500", "142038.017500", "142039.020000", "142040.025000", "142041.030000", "142042.032500", "142043.037500", "142044.040000", "142045.045000", "142046.050000", "142047.052500", "142048.057500", "142049.060000", "142050.065000", "142051.070000", "142052.072500", "142053.077500", "142054.080000", "142055.085000", "142056.090000", "142057.092500", "142058.097500", "142059.100000", "142100.105000", "142101.110000", "142102.112500", "142103.117500", "142104.120000", "142105.125000", "142106.130000", "142107.132500", "142108.137500", "142109.142500", "142110.145000", "142111.150000", "142112.152500", "142113.157500", "142114.162500", "142115.165000", "142116.170000", "142117.172500", "142118.177500", "142119.182500", "142120.185000", "142121.190000", "142122.192500", "142123.197500", "142124.202500", "142125.205000", "142126.210000", "142127.212500", "142128.217500", "142129.222500", "142130.225000", "142131.230000", "142132.232500", "142133.237500", "142134.242500", "142135.245000", "142136.250000", "142137.252500", "142138.257500", "142139.262500", "142140.265000", "142141.270000", "142142.275000", "142143.277500", "142144.282500", "142145.285000", "142146.290000", "142147.295000", "142148.297500", "142149.302500", "142150.305000", "142151.310000", "142152.315000", "142153.317500", "142154.322500", "142155.325000", "142156.330000", "142157.335000", "142158.337500", "142159.342500", "142200.345000", "142201.350000", "142202.355000", "142203.357500", "142204.362500", "142205.365000", "142206.370000", "142207.375000", "142208.377500", "142209.382500", "142210.387500", "142211.390000", "142212.395000", "142213.397500", "142214.402500", "142215.407500", "142216.410000", "142217.415000", "142218.417500", "142219.422500", "142220.427500", "142221.430000", "142222.435000", "142223.437500", "142224.442500", "142225.447500", "142226.450000", "142227.455000", "142228.457500", "142229.462500", "142230.467500", "142231.470000", "142232.475000"],
      "ContentTime": ["141730.187000", "141730.187000", "141730.187000", "141730.187000", "141730.187000", "141730.187000", "141730.187000", "141730.187000", "141730.203000", "141730.203000", "141730.203000", "141730.203000", "141730.203000", "141730.218000", "141730.218000", "141730.218000", "141730.218000", "141730.218000", "141730.218000", "141730.218000", "141730.218000", "141730.234000", "141730.234000", "141730.234000", "141730.234000", "141730.234000", "141750.140000", "141750.156000", "141750.156000", "141750.156000", "141750.156000", "141750.156000", "141750.156000", "141750.156000", "141750.171000", "141750.171000", "141750.171000", "141750.171000", "141750.171000", "141750.187000", "141750.187000", "141750.187000", "141750.187000", "141750.187000", "141750.187000", "141750.187000", "141810.140000", "141810.156000", "141810.156000", "141810.156000", "141810.156000", "141810.156000", "141810.156000", "141810.156000", "141810.171000", "141810.171000", "141810.171000", "141810.171000", "141810.171000", "141810.171000", "141810.171000", "141810.187000", "141810.187000", "141810.187000", "141810.187000", "141810.187000", "141830.140000", "141830.156000", "141830.156000", "141830.156000", "141830.156000", "141830.156000", "141830.156000", "141830.171000", "141830.171000", "141830.171000", "141830.171000", "141830.171000", "141830.171000", "141830.171000", "141830.187000", "141830.187000", "141830.187000", "141830.187000", "141830.187000", "141830.203000", "141850.140000", "141850.156000", "141850.156000", "141850.156000", "141850.156000", "141850.156000", "141850.156000", "141850.171000", "141850.171000", "141850.171000", "141850.171000", "141850.171000", "141850.171000", "141850.171000", "141850.187000", "141850.187000", "141850.187000", "141850.187000", "141850.187000", "141850.187000", "141910.140000", "141910.156000", "141910.156000", "141910.156000", "141910.156000", "141910.156000", "141910.156000", "141910.156000", "141910.171000", "141910.171000", "141910.171000", "141910.171000", "141910.171000", "141910.171000", "141910.171000", "141910.187000", "141910.187000", "141910.187000", "141910.187000", "141910.187000", "141930.140000", "141930.156000", "141930.156000", "141930.156000", "141930.156000", "141930.156000", "141930.171000", "141930.171000", "141930.171000", "141930.171000", "141930.171000", "141930.171000", "141930.171000", "141930.171000", "141930.187000", "141930.187000", "141930.187000", "141930.187000", "141930.187000", "141930.187000", "141950.140000", "141950.156000", "141950.156000", "141950.156000", "141950.156000", "141950.156000", "141950.171000", "141950.171000", "141950.171000", "141950.171000", "141950.187000", "141950.187000", "141950.187000", "141950.187000", "141950.187000", "141950.187000", "141950.187000", "141950.203000", "141950.203000", "141950.203000", "142010.140000", "142010.156000", "142010.156000", "142010.156000", "142010.156000", "142010.156000", "142010.171000", "142010.171000", "142010.171000", "142010.171000", "142010.171000", "142010.171000", "142010.171000", "142010.187000", "142010.187000", "142010.187000", "142010.187000", "142010.187000", "142010.187000", "142010.203000", "142030.140000", "142030.156000", "142030.156000", "142030.156000", "142030.156000", "142030.156000", "142030.156000", "142030.156000", "142030.171000", "142030.171000", "142030.171000", "142030.171000", "142030.171000", "142030.171000", "142030.171000", "142030.171000", "142030.187000", "142030.187000", "142030.187000", "142030.187000", "142050.140000", "142050.156000", "142050.156000", "142050.156000", "142050.156000", "142050.156000", "142050.156000", "142050.156000", "142050.171000", "142050.171000", "142050.171000", "142050.171000", "142050.171000", "142050.171000", "142050.171000", "142050.171000", "142050.187000", "142050.187000", "142050.187000", "142050.187000", "142110.140000", "142110.156000", "142110.156000", "142110.156000", "142110.156000", "142110.156000", "142110.156000", "142110.156000", "142110.171000", "142110.171000", "142110.171000", "142110.171000", "142110.171000", "142110.171000", "142110.187000", "142110.187000", "142110.187000", "142110.187000", "142110.187000", "142110.203000", "142130.140000", "142130.156000", "142130.156000", "142130.156000", "142130.156000", "142130.156000", "142130.156000", "142130.156000", "142130.171000", "142130.171000", "142130.171000", "142130.171000", "142130.171000", "142130.171000", "142130.171000", "142130.187000", "142130.187000", "142130.187000", "142130.187000", "142130.187000", "142150.140000", "142150.156000", "142150.156000", "142150.156000", "142150.156000", "142150.156000", "142150.156000", "142150.156000", "142150.171000", "142150.171000", "142150.171000", "142150.171000", "142150.171000", "142150.171000", "142150.187000", "142150.187000", "142150.187000", "142150.187000", "142150.187000", "142150.187000", "142210.140000", "142210.156000", "142210.156000", "142210.156000", "142210.156000", "142210.156000", "142210.156000", "142210.156000", "142210.171000", "142210.171000", "142210.171000", "142210.171000", "142210.171000", "142210.171000", "142210.171000", "142210.171000", "142210.187000", "142210.187000", "142210.187000", "142210.187000", "142230.140000", "142230.156000", "142230.156000", "142230.156000", "142230.156000", "142230.171000", "142230.171000", "142230.171000", "142230.171000", "142230.171000", "142230.187000", "142230.187000", "142230.187000", "142230.187000", "142230.187000", "142230.187000", "142230.187000", "142230.187000", "142230.203000", "142230.203000", "142238.265000", "142238.281000", "142238.281000", "142238.281000"],
      "InstanceCreationTime": ["141730.187000", "141730.187000", "141730.187000", "141730.187000", "141730.187000", "141730.187000", "141730.187000", "141730.187000", "141730.203000", "141730.203000", "141730.203000", "141730.203000", "141730.203000", "141730.218000", "141730.218000", "141730.218000", "141730.218000", "141730.218000", "141730.218000", "141730.218000", "141730.218000", "141730.234000", "141730.234000", "141730.234000", "141730.234000", "141730.234000", "141750.140000", "141750.156000", "141750.156000", "141750.156000", "141750.156000", "141750.156000", "141750.156000", "141750.156000", "141750.171000", "141750.171000", "141750.171000", "141750.171000", "141750.171000", "141750.187000", "141750.187000", "141750.187000", "141750.187000", "141750.187000", "141750.187000", "141750.187000", "141810.140000", "141810.156000", "141810.156000", "141810.156000", "141810.156000", "141810.156000", "141810.156000", "141810.156000", "141810.171000", "141810.171000", "141810.171000", "141810.171000", "141810.171000", "141810.171000", "141810.171000", "141810.187000", "141810.187000", "141810.187000", "141810.187000", "141810.187000", "141830.140000", "141830.156000", "141830.156000", "141830.156000", "141830.156000", "141830.156000", "141830.156000", "141830.171000", "141830.171000", "141830.171000", "141830.171000", "141830.171000", "141830.171000", "141830.171000", "141830.187000", "141830.187000", "141830.187000", "141830.187000", "141830.187000", "141830.203000", "141850.140000", "141850.156000", "141850.156000", "141850.156000", "141850.156000", "141850.156000", "141850.156000", "141850.171000", "141850.171000", "141850.171000", "141850.171000", "141850.171000", "141850.171000", "141850.171000", "141850.187000", "141850.187000", "141850.187000", "141850.187000", "141850.187000", "141850.187000", "141910.140000", "141910.156000", "141910.156000", "141910.156000", "141910.156000", "141910.156000", "141910.156000", "141910.156000", "141910.171000", "141910.171000", "141910.171000", "141910.171000", "141910.171000", "141910.171000", "141910.171000", "141910.187000", "141910.187000", "141910.187000", "141910.187000", "141910.187000", "141930.140000", "141930.156000", "141930.156000", "141930.156000", "141930.156000", "141930.156000", "141930.171000", "141930.171000", "141930.171000", "141930.171000", "141930.171000", "141930.171000", "141930.171000", "141930.171000", "141930.187000", "141930.187000", "141930.187000", "141930.187000", "141930.187000", "141930.187000", "141950.140000", "141950.156000", "141950.156000", "141950.156000", "141950.156000", "141950.156000", "141950.171000", "141950.171000", "141950.171000", "141950.171000", "141950.187000", "141950.187000", "141950.187000", "141950.187000", "141950.187000", "141950.187000", "141950.187000", "141950.203000", "141950.203000", "141950.203000", "142010.140000", "142010.156000", "142010.156000", "142010.156000", "142010.156000", "142010.156000", "142010.171000", "142010.171000", "142010.171000", "142010.171000", "142010.171000", "142010.171000", "142010.171000", "142010.187000", "142010.187000", "142010.187000", "142010.187000", "142010.187000", "142010.187000", "142010.203000", "142030.140000", "142030.156000", "142030.156000", "142030.156000", "142030.156000", "142030.156000", "142030.156000", "142030.156000", "142030.171000", "142030.171000", "142030.171000", "142030.171000", "142030.171000", "142030.171000", "142030.171000", "142030.171000", "142030.187000", "142030.187000", "142030.187000", "142030.187000", "142050.140000", "142050.156000", "142050.156000", "142050.156000", "142050.156000", "142050.156000", "142050.156000", "142050.156000", "142050.171000", "142050.171000", "142050.171000", "142050.171000", "142050.171000", "142050.171000", "142050.171000", "142050.171000", "142050.187000", "142050.187000", "142050.187000", "142050.187000", "142110.140000", "142110.156000", "142110.156000", "142110.156000", "142110.156000", "142110.156000", "142110.156000", "142110.156000", "142110.171000", "142110.171000", "142110.171000", "142110.171000", "142110.171000", "142110.171000", "142110.187000", "142110.187000", "142110.187000", "142110.187000", "142110.187000", "142110.203000", "142130.140000", "142130.156000", "142130.156000", "142130.156000", "142130.156000", "142130.156000", "142130.156000", "142130.156000", "142130.171000", "142130.171000", "142130.171000", "142130.171000", "142130.171000", "142130.171000", "142130.171000", "142130.187000", "142130.187000", "142130.187000", "142130.187000", "142130.187000", "142150.140000", "142150.156000", "142150.156000", "142150.156000", "142150.156000", "142150.156000", "142150.156000", "142150.156000", "142150.171000", "142150.171000", "142150.171000", "142150.171000", "142150.171000", "142150.171000", "142150.187000", "142150.187000", "142150.187000", "142150.187000", "142150.187000", "142150.187000", "142210.140000", "142210.156000", "142210.156000", "142210.156000", "142210.156000", "142210.156000", "142210.156000", "142210.156000", "142210.171000", "142210.171000", "142210.171000", "142210.171000", "142210.171000", "142210.171000", "142210.171000", "142210.171000", "142210.187000", "142210.187000", "142210.187000", "142210.187000", "142230.140000", "142230.156000", "142230.156000", "142230.156000", "142230.156000", "142230.171000", "142230.171000", "142230.171000", "142230.171000", "142230.171000", "142230.187000", "142230.187000", "142230.187000", "142230.187000", "142230.187000", "142230.187000", "142230.187000", "142230.187000", "142230.203000", "142230.203000", "142238.265000", "142238.281000", "142238.281000", "142238.281000"],
      "InstanceNumber": [1, 2, 3, 4, 5, 6, 7, 8, 9, 10, 11, 12, 13, 14, 15, 16, 17, 18, 19, 20, 21, 22, 23, 24, 25, 26, 27, 28, 29, 30, 31, 32, 33, 34, 35, 36, 37, 38, 39, 40, 41, 42, 43, 44, 45, 46, 47, 48, 49, 50, 51, 52, 53, 54, 55, 56, 57, 58, 59, 60, 61, 62, 63, 64, 65, 66, 67, 68, 69, 70, 71, 72, 73, 74, 75, 76, 77, 78, 79, 80, 81, 82, 83, 84, 85, 86, 87, 88, 89, 90, 91, 92, 93, 94, 95, 96, 97, 98, 99, 100, 101, 102, 103, 104, 105, 106, 107, 108, 109, 110, 111, 112, 113, 114, 115, 116, 117, 118, 119, 120, 121, 122, 123, 124, 125, 126, 127, 128, 129, 130, 131, 132, 133, 134, 135, 136, 137, 138, 139, 140, 141, 142, 143, 144, 145, 146, 147, 148, 149, 150, 151, 152, 153, 154, 155, 156, 157, 158, 159, 160, 161, 162, 163, 164, 165, 166, 167, 168, 169, 170, 171, 172, 173, 174, 175, 176, 177, 178, 179, 180, 181, 182, 183, 184, 185, 186, 187, 188, 189, 190, 191, 192, 193, 194, 195, 196, 197, 198, 199, 200, 201, 202, 203, 204, 205, 206, 207, 208, 209, 210, 211, 212, 213, 214, 215, 216, 217, 218, 219, 220, 221, 222, 223, 224, 225, 226, 227, 228, 229, 230, 231, 232, 233, 234, 235, 236, 237, 238, 239, 240, 241, 242, 243, 244, 245, 246, 247, 248, 249, 250, 251, 252, 253, 254, 255, 256, 257, 258, 259, 260, 261, 262, 263, 264, 265, 266, 267, 268, 269, 270, 271, 272, 273, 274, 275, 276, 277, 278, 279, 280, 281, 282, 283, 284, 285, 286, 287, 288, 289, 290, 291, 292, 293, 294, 295, 296, 297, 298, 299, 300, 301, 302, 303, 304, 305, 306, 307, 308, 309, 310, 311, 312, 313, 314, 315, 316, 317, 318, 319, 320, 321, 322, 323, 324, 325, 326, 327, 328, 329, 330],
      "LargestImagePixelValue": [1846, 1824, 1803, 1805, 1794, 1807, 1786, 1771, 1763, 1761, 1761, 1776, 1715, 1701, 1728, 1743, 1747, 1684, 1723, 1732, 1738, 1730, 1734, 1731, 1720, 1766, 1745, 1750, 1755, 1762, 1756, 1752, 1747, 1747, 1752, 1768, 1768, 1746, 1756, 1764, 1767, 1772, 1746, 1744, 1749, 1765, 1774, 1769, 1777, 1736, 1762, 1755, 1733, 1725, 1752, 1762, 1735, 1765, 1771, 1752, 1770, 1772, 1787, 1756, 1818, 1772, 1770, 1762, 1782, 1740, 1767, 1773, 1769, 1795, 1760, 1767, 1775, 1775, 1769, 1754, 1774, 1784, 1774, 1748, 1763, 1759, 1752, 1757, 1771, 1770, 1786, 1768, 1736, 1753, 1736, 1780, 1734, 1744, 1737, 1748, 1761, 1723, 1748, 1732, 1761, 1741, 1747, 1782, 1778, 1765, 1743, 1771, 1759, 1737, 1745, 1762, 1753, 1748, 1779, 1772, 1793, 1797, 1771, 1792, 1760, 1788, 1743, 1776, 1767, 1745, 1768, 1784, 1750, 1743, 1771, 1772, 1762, 1766, 1777, 1783, 1769, 1757, 1739, 1742, 1758, 1764, 1768, 1767, 1765, 1752, 1752, 1788, 1724, 1758, 1774, 1740, 1744, 1746, 1758, 1763, 1742, 1729, 1781, 1810, 1790, 1794, 1801, 1801, 1790, 1790, 1785, 1786, 1768, 1762, 1758, 1675, 1707, 1684, 1723, 1729, 1724, 1732, 1736, 1731, 1727, 1705, 1746, 1761, 1760, 1766, 1782, 1762, 1725, 1770, 1754, 1799, 1767, 1770, 1785, 1803, 1779, 1788, 1761, 1749, 1736, 1764, 1794, 1763, 1758, 1762, 1788, 1782, 1768, 1778, 1780, 1748, 1761, 1777, 1761, 1771, 1776, 1765, 1764, 1743, 1741, 1778, 1763, 1760, 1780, 1763, 1764, 1796, 1775, 1776, 1784, 1793, 1764, 1753, 1756, 1776, 1771, 1773, 1762, 1762, 1764, 1773, 1778, 1773, 1758, 1755, 1750, 1759, 1755, 1753, 1772, 1784, 1785, 1782, 1765, 1772, 1773, 1770, 1761, 1773, 1791, 1782, 1789, 1799, 1805, 1776, 1766, 1786, 1776, 1763, 1765, 1774, 1781, 1782, 1777, 1789, 1748, 1766, 1740, 1763, 1779, 1749, 1771, 1782, 1773, 1795, 1791, 1719, 1687, 1693, 1719, 1764, 1746, 1713, 1724, 1765, 1758, 1740, 1740, 1739, 1740, 1753, 1756, 1733, 1736, 1754, 1781, 1759, 1761, 1750, 1741, 1739, 1748, 1750, 1743, 1745, 1777, 1760, 1759, 1754, 1768, 1767, 1784, 1772, 1765, 1763],
      "WindowCenter": [406.0, 404.0, 403.0, 401.0, 400.0, 399.0, 397.0, 396.0, 395.0, 394.0, 394.0, 394.0, 394.0, 396.0, 397.0, 397.0, 397.0, 397.0, 398.0, 398.0, 400.0, 401.0, 401.0, 400.0, 400.0, 400.0, 400.0, 401.0, 401.0, 401.0, 401.0, 401.0, 401.0, 403.0, 403.0, 403.0, 402.0, 403.0, 403.0, 402.0, 401.0, 402.0, 402.0, 403.0, 403.0, 403.0, 403.0, 401.0, 400.0, 399.0, 399.0, 399.0, 400.0, 400.0, 401.0, 403.0, 403.0, 402.0, 401.0, 400.0, 400.0, 400.0, 400.0, 401.0, 401.0, 401.0, 401.0, 402.0, 403.0, 401.0, 402.0, 402.0, 401.0, 401.0, 401.0, 402.0, 403.0, 403.0, 403.0, 403.0, 402.0, 401.0, 401.0, 401.0, 401.0, 401.0, 401.0, 403.0, 403.0, 402.0, 401.0, 400.0, 400.0, 401.0, 401.0, 400.0, 401.0, 401.0, 401.0, 400.0, 400.0, 400.0, 401.0, 401.0, 401.0, 402.0, 403.0, 402.0, 401.0, 400.0, 400.0, 399.0, 398.0, 397.0, 397.0, 398.0, 400.0, 402.0, 403.0, 402.0, 402.0, 402.0, 401.0, 401.0, 399.0, 400.0, 399.0, 401.0, 403.0, 404.0, 403.0, 402.0, 401.0, 401.0, 401.0, 401.0, 401.0, 402.0, 401.0, 401.0, 401.0, 401.0, 401.0, 401.0, 401.0, 402.0, 404.0, 404.0, 402.0, 401.0, 400.0, 400.0, 400.0, 401.0, 402.0, 402.0, 402.0, 401.0, 399.0, 398.0, 398.0, 398.0, 399.0, 402.0, 405.0, 407.0, 406.0, 406.0, 404.0, 402.0, 400.0, 398.0, 396.0, 396.0, 395.0, 395.0, 395.0, 394.0, 394.0, 395.0, 395.0, 396.0, 396.0, 396.0, 397.0, 398.0, 400.0, 402.0, 403.0, 404.0, 403.0, 402.0, 401.0, 402.0, 402.0, 404.0, 402.0, 402.0, 402.0, 401.0, 400.0, 400.0, 400.0, 401.0, 402.0, 402.0, 402.0, 402.0, 403.0, 404.0, 404.0, 403.0, 402.0, 402.0, 401.0, 401.0, 402.0, 403.0, 404.0, 404.0, 404.0, 402.0, 402.0, 401.0, 401.0, 400.0, 400.0, 400.0, 402.0, 403.0, 405.0, 406.0, 404.0, 404.0, 402.0, 401.0, 400.0, 400.0, 402.0, 402.0, 401.0, 401.0, 401.0, 402.0, 403.0, 402.0, 402.0, 401.0, 401.0, 401.0, 401.0, 401.0, 402.0, 403.0, 404.0, 403.0, 402.0, 401.0, 401.0, 401.0, 401.0, 401.0, 402.0, 403.0, 403.0, 403.0, 403.0, 403.0, 403.0, 401.0, 400.0, 400.0, 401.0, 401.0, 400.0, 400.0, 402.0, 402.0, 401.0, 400.0, 400.0, 400.0, 400.0, 401.0, 402.0, 403.0, 403.0, 403.0, 402.0, 401.0, 401.0, 400.0, 399.0, 401.0, 401.0, 401.0, 401.0, 400.0, 400.0, 400.0, 400.0, 400.0, 401.0, 400.0, 399.0, 399.0, 401.0, 402.0, 403.0, 403.0, 402.0, 400.0, 400.0, 400.0, 400.0, 399.0, 399.0, 399.0, 400.0, 402.0, 402.0, 402.0, 403.0, 403.0, 403.0, 402.0, 402.0, 402.0, 402.0, 401.0],
