{
  "AcquisitionMatrixPE": 104,
  "AcquisitionNumber": 1,
  "AcquisitionTime": "14:02:45.527500",
  "BandwidthPerPixelPhaseEncode": 43.054,
  "BaseResolution": 104,
  "CoilString": "C:E1_2",
  "ConversionSoftware": "dcm2niix",
  "ConversionSoftwareVersion": "v1.0.20191031",
  "DerivedVendorReportedEchoSpacing": 0.000669999,
  "DeviceSerialNumber": "18932",
  "DwellTime": 2.8e-06,
  "EchoTime": 0.02,
  "EffectiveEchoSpacing": 0.000223333,
  "FlipAngle": 30,
  "ImageComments": "Unaliased_MB2_PE2",
  "ImageOrientationPatientDICOM": [1, 0, 0, 0, 0.999816, -0.0191974],
  "ImageType": [
    "ORIGINAL",
    "PRIMARY",
    "M",
    "MB",
    "ND",
    "MOSAIC"
],
  "ImagingFrequency": 297.229,
  "InPlanePhaseEncodingDirectionDICOM": "COL",
  "InstitutionAddress": "Richmond_Street_North_1151_London_409EF2_Ontario_CA_N6A_5B7",
  "InstitutionName": "Robarts_Reserch_Institute",
  "InstitutionalDepartmentName": "Department",
  "MRAcquisitionType": "2D",
  "MagneticFieldStrength": 6.98,
  "Manufacturer": "Siemens",
  "ManufacturersModelName": "Investigational_Device_7T",
  "Modality": "MR",
  "MultibandAccelerationFactor": 2,
  "ParallelReductionFactorInPlane": 3,
  "PartialFourier": 0.875,
  "PatientPosition": "HFS",
  "PercentPhaseFOV": 100,
  "PhaseEncodingDirection": "j-",
  "PhaseEncodingSteps": 91,
  "PhaseResolution": 1,
  "PixelBandwidth": 1717,
  "ProcedureStepDescription": "Diedrichsen_SeqRep4",
  "ProtocolName": "mbep2d_bold_mb2_p3_AP_2iso",
  "PulseSequenceDetails": "%CustomerSeq%_cmrr_mbep2d_bold",
  "ReceiveCoilName": "CFMM_8Tx32Rx",
  "ReconMatrixPE": 104,
  "RefLinesPE": 36,
  "RepetitionTime": 1,
  "ScanOptions": "PFP_FS",
  "ScanningSequence": "EP",
  "SequenceName": "epfid2d1_104",
  "SequenceVariant": "SK_SS",
  "SeriesDescription": "mbep2d_bold_mb2_p3_AP_2iso",
  "SeriesNumber": 11,
  "ShimSetting": [24, 1989, 99, 1296, 204, 121, -70, -195],
  "SliceThickness": 2,
  "SliceTiming": [0, 0.23, 0.4575, 0.685, 0.9125, 0.1375, 0.365, 0.595, 0.8225, 0.0475, 0.275, 0.5025, 0.73, 0.96, 0.1825, 0.4125, 0.64, 0.8675, 0.0925, 0.32, 0.5475, 0.7775, 0, 0.23, 0.4575, 0.685, 0.9125, 0.1375, 0.365, 0.595, 0.8225, 0.0475, 0.275, 0.5025, 0.73, 0.96, 0.1825, 0.4125, 0.64, 0.8675, 0.0925, 0.32, 0.5475, 0.7775],
  "SoftwareVersions": "syngo_MR_B17",
  "SpacingBetweenSlices": 2,
  "StationName": "MASTER",
  "TaskName": "dsp",
  "TotalReadoutTime": 0.0230033,
  "TxRefAmp": 120,
  "dcmmeta_affine": [
    [-2.0, 0.0, 0.0, 105.4527816772461],
    [0.0, 1.999631404876709, -0.03839488327503204, -104.06344604492188],
    [0.0, 0.03839488327503204, 1.999631404876709, -13.038399696350098],
    [0.0, 0.0, 0.0, 1.0]
],
  "dcmmeta_reorient_transform": [
    [0.0, -1.0, 0.0, 103.0],
    [1.0, 0.0, 0.0, 0.0],
    [0.0, 0.0, 1.0, 0.0],
    [0.0, 0.0, 0.0, 1.0]
],
  "dcmmeta_shape": [104, 104, 44, 330],
  "dcmmeta_slice_dim": 2,
  "dcmmeta_version": 0.6,
  "global": {
    "const": {
      "AcquisitionMatrix": [104, 0, 0, 104],
      "AngioFlag": "N",
      "BitsAllocated": 16,
      "BitsStored": 12,
      "Columns": 728,
      "EchoNumbers": 1,
      "EchoTime": 20.0,
      "EchoTrainLength": 1,
      "FlipAngle": 30.0,
      "HighBit": 11,
      "ImageOrientationPatient": [1.0, 0.0, 0.0, 0.0, 0.99981571213624, -0.0191974416394],
      "ImagePositionPatient": [-729.45278453827, -725.78359141637, 2.8954772367172],
      "ImageType": [
        "ORIGINAL",
        "PRIMARY",
        "M",
        "MB",
        "ND",
        "MOSAIC"
],
      "ImagedNucleus": "1H",
      "ImagingFrequency": 297.228931,
      "InPlanePhaseEncodingDirection": "COL",
      "MRAcquisitionType": "2D",
      "MagneticFieldStrength": 6.98,
      "Manufacturer": "SIEMENS",
      "ManufacturerModelName": "Investigational_Device_7T",
      "Modality": "MR",
      "NumberOfAverages": 1.0,
      "NumberOfPhaseEncodingSteps": 91,
      "PercentPhaseFieldOfView": 100.0,
      "PercentSampling": 100.0,
      "PerformedProcedureStepStartTime": "135324.296000",
      "PhotometricInterpretation": "MONOCHROME2",
      "PixelBandwidth": 1717.0,
      "PixelRepresentation": 0,
      "PixelSpacing": [2.0, 2.0],
      "ProtocolName": "mbep2d_bold_mb2_p3_AP 2iso",
      "RepetitionTime": 1000.0,
      "Rows": 728,
      "SAR": 0.0,
      "SamplesPerPixel": 1,
      "ScanOptions": [
        "PFP",
        "FS"
],
      "ScanningSequence": "EP",
      "SequenceName": "epfid2d1_104",
      "SequenceVariant": [
        "SK",
        "SS"
],
      "SeriesDescription": "mbep2d_bold_mb2_p3_AP 2iso",
      "SeriesNumber": 11,
      "SeriesTime": "140317.453000",
      "SliceLocation": -11.038244503676,
      "SliceThickness": 2.0,
      "SmallestImagePixelValue": 0,
      "SoftwareVersions": "syngo MR B17",
      "SpacingBetweenSlices": 2.0000000361568,
      "SpecificCharacterSet": "ISO_IR 100",
      "StudyID": "1",
      "StudyTime": "135324.171000",
      "TransmitCoilName": "CFMM_8Tx32Rx",
      "VariableFlipAngleFlag": "N",
      "WindowCenterWidthExplanation": "Algo1",
      "dBdt": 0.0},
    "slices": {}
  },
  "time": {
    "samples": {
      "AcquisitionNumber": [1, 2, 3, 4, 5, 6, 7, 8, 9, 10, 11, 12, 13, 14, 15, 16, 17, 18, 19, 20, 21, 22, 23, 24, 25, 26, 27, 28, 29, 30, 31, 32, 33, 34, 35, 36, 37, 38, 39, 40, 41, 42, 43, 44, 45, 46, 47, 48, 49, 50, 51, 52, 53, 54, 55, 56, 57, 58, 59, 60, 61, 62, 63, 64, 65, 66, 67, 68, 69, 70, 71, 72, 73, 74, 75, 76, 77, 78, 79, 80, 81, 82, 83, 84, 85, 86, 87, 88, 89, 90, 91, 92, 93, 94, 95, 96, 97, 98, 99, 100, 101, 102, 103, 104, 105, 106, 107, 108, 109, 110, 111, 112, 113, 114, 115, 116, 117, 118, 119, 120, 121, 122, 123, 124, 125, 126, 127, 128, 129, 130, 131, 132, 133, 134, 135, 136, 137, 138, 139, 140, 141, 142, 143, 144, 145, 146, 147, 148, 149, 150, 151, 152, 153, 154, 155, 156, 157, 158, 159, 160, 161, 162, 163, 164, 165, 166, 167, 168, 169, 170, 171, 172, 173, 174, 175, 176, 177, 178, 179, 180, 181, 182, 183, 184, 185, 186, 187, 188, 189, 190, 191, 192, 193, 194, 195, 196, 197, 198, 199, 200, 201, 202, 203, 204, 205, 206, 207, 208, 209, 210, 211, 212, 213, 214, 215, 216, 217, 218, 219, 220, 221, 222, 223, 224, 225, 226, 227, 228, 229, 230, 231, 232, 233, 234, 235, 236, 237, 238, 239, 240, 241, 242, 243, 244, 245, 246, 247, 248, 249, 250, 251, 252, 253, 254, 255, 256, 257, 258, 259, 260, 261, 262, 263, 264, 265, 266, 267, 268, 269, 270, 271, 272, 273, 274, 275, 276, 277, 278, 279, 280, 281, 282, 283, 284, 285, 286, 287, 288, 289, 290, 291, 292, 293, 294, 295, 296, 297, 298, 299, 300, 301, 302, 303, 304, 305, 306, 307, 308, 309, 310, 311, 312, 313, 314, 315, 316, 317, 318, 319, 320, 321, 322, 323, 324, 325, 326, 327, 328, 329, 330],
      "AcquisitionTime": ["140245.527500", "140246.532500", "140247.537500", "140248.540000", "140249.545000", "140250.547500", "140251.552500", "140252.557500", "140253.560000", "140254.565000", "140255.570000", "140256.572500", "140257.577500", "140258.580000", "140259.585000", "140300.590000", "140301.592500", "140302.597500", "140303.600000", "140304.605000", "140305.610000", "140306.612500", "140307.617500", "140308.620000", "140309.625000", "140310.630000", "140311.632500", "140312.637500", "140313.640000", "140314.645000", "140315.650000", "140316.652500", "140317.657500", "140318.660000", "140319.665000", "140320.670000", "140321.672500", "140322.677500", "140323.682500", "140324.685000", "140325.690000", "140326.692500", "140327.697500", "140328.702500", "140329.705000", "140330.710000", "140331.712500", "140332.717500", "140333.722500", "140334.725000", "140335.730000", "140336.732500", "140337.737500", "140338.742500", "140339.745000", "140340.750000", "140341.752500", "140342.757500", "140343.762500", "140344.765000", "140345.770000", "140346.772500", "140347.777500", "140348.782500", "140349.785000", "140350.790000", "140351.792500", "140352.797500", "140353.802500", "140354.805000", "140355.810000", "140356.815000", "140357.817500", "140358.822500", "140359.825000", "140400.830000", "140401.835000", "140402.837500", "140403.842500", "140404.845000", "140405.850000", "140406.855000", "140407.857500", "140408.862500", "140409.865000", "140410.870000", "140411.875000", "140412.877500", "140413.882500", "140414.885000", "140415.890000", "140416.895000", "140417.897500", "140418.902500", "140419.905000", "140420.910000", "140421.915000", "140422.917500", "140423.922500", "140424.927500", "140425.930000", "140426.935000", "140427.937500", "140428.942500", "140429.947500", "140430.950000", "140431.955000", "140432.957500", "140433.962500", "140434.967500", "140435.970000", "140436.975000", "140437.977500", "140438.982500", "140439.987500", "140440.990000", "140441.995000", "140442.997500", "140444.002500", "140445.007500", "140446.010000", "140447.015000", "140448.017500", "140449.022500", "140450.027500", "140451.030000", "140452.035000", "140453.037500", "140454.042500", "140455.047500", "140456.050000", "140457.055000", "140458.060000", "140459.062500", "140500.067500", "140501.070000", "140502.075000", "140503.080000", "140504.082500", "140505.087500", "140506.090000", "140507.095000", "140508.100000", "140509.102500", "140510.107500", "140511.110000", "140512.115000", "140513.120000", "140514.122500", "140515.127500", "140516.130000", "140517.135000", "140518.140000", "140519.142500", "140520.147500", "140521.150000", "140522.155000", "140523.160000", "140524.162500", "140525.167500", "140526.170000", "140527.175000", "140528.180000", "140529.182500", "140530.187500", "140531.192500", "140532.195000", "140533.200000", "140534.202500", "140535.207500", "140536.212500", "140537.215000", "140538.220000", "140539.222500", "140540.227500", "140541.232500", "140542.235000", "140543.240000", "140544.242500", "140545.247500", "140546.252500", "140547.255000", "140548.260000", "140549.262500", "140550.267500", "140551.272500", "140552.275000", "140553.280000", "140554.282500", "140555.287500", "140556.292500", "140557.295000", "140558.300000", "140559.305000", "140600.307500", "140601.312500", "140602.315000", "140603.320000", "140604.325000", "140605.327500", "140606.332500", "140607.335000", "140608.340000", "140609.345000", "140610.347500", "140611.352500", "140612.355000", "140613.360000", "140614.365000", "140615.367500", "140616.372500", "140617.375000", "140618.380000", "140619.385000", "140620.387500", "140621.392500", "140622.395000", "140623.400000", "140624.405000", "140625.407500", "140626.412500", "140627.415000", "140628.420000", "140629.425000", "140630.427500", "140631.432500", "140632.437500", "140633.440000", "140634.445000", "140635.447500", "140636.452500", "140637.457500", "140638.460000", "140639.465000", "140640.467500", "140641.472500", "140642.477500", "140643.480000", "140644.485000", "140645.487500", "140646.492500", "140647.497500", "140648.500000", "140649.505000", "140650.507500", "140651.512500", "140652.517500", "140653.520000", "140654.525000", "140655.527500", "140656.532500", "140657.537500", "140658.540000", "140659.545000", "140700.547500", "140701.552500", "140702.557500", "140703.560000", "140704.565000", "140705.570000", "140706.572500", "140707.577500", "140708.580000", "140709.585000", "140710.590000", "140711.592500", "140712.597500", "140713.600000", "140714.605000", "140715.610000", "140716.612500", "140717.617500", "140718.620000", "140719.625000", "140720.630000", "140721.632500", "140722.637500", "140723.640000", "140724.645000", "140725.650000", "140726.652500", "140727.657500", "140728.660000", "140729.665000", "140730.670000", "140731.672500", "140732.677500", "140733.682500", "140734.685000", "140735.690000", "140736.692500", "140737.697500", "140738.702500", "140739.705000", "140740.710000", "140741.712500", "140742.717500", "140743.722500", "140744.725000", "140745.730000", "140746.732500", "140747.737500", "140748.742500", "140749.745000", "140750.750000", "140751.752500", "140752.757500", "140753.762500", "140754.765000", "140755.770000", "140756.772500", "140757.777500", "140758.782500", "140759.785000", "140800.790000", "140801.792500", "140802.797500", "140803.802500", "140804.805000", "140805.810000", "140806.815000", "140807.817500", "140808.822500", "140809.825000", "140810.830000", "140811.835000", "140812.837500", "140813.842500", "140814.845000", "140815.850000"],
      "ContentTime": ["140317.453000", "140317.453000", "140317.453000", "140317.453000", "140317.453000", "140317.453000", "140317.468000", "140317.468000", "140317.468000", "140317.468000", "140317.468000", "140317.468000", "140317.468000", "140317.484000", "140317.484000", "140317.484000", "140317.484000", "140317.484000", "140317.484000", "140317.484000", "140317.484000", "140317.500000", "140317.500000", "140317.500000", "140317.500000", "140317.500000", "140317.500000", "140317.515000", "140317.515000", "140317.515000", "140317.515000", "140337.406000", "140337.421000", "140337.421000", "140337.421000", "140337.421000", "140337.421000", "140337.421000", "140337.421000", "140337.437000", "140337.437000", "140337.437000", "140337.437000", "140337.437000", "140337.437000", "140337.437000", "140337.453000", "140337.453000", "140337.453000", "140337.453000", "140337.453000", "140357.406000", "140357.421000", "140357.421000", "140357.421000", "140357.421000", "140357.421000", "140357.421000", "140357.437000", "140357.437000", "140357.437000", "140357.437000", "140357.437000", "140357.437000", "140357.437000", "140357.453000", "140357.453000", "140357.453000", "140357.453000", "140357.453000", "140357.453000", "140417.406000", "140417.421000", "140417.421000", "140417.421000", "140417.421000", "140417.421000", "140417.421000", "140417.421000", "140417.437000", "140417.437000", "140417.437000", "140417.437000", "140417.437000", "140417.437000", "140417.437000", "140417.453000", "140417.453000", "140417.453000", "140417.453000", "140417.453000", "140437.406000", "140437.421000", "140437.421000", "140437.421000", "140437.421000", "140437.421000", "140437.421000", "140437.421000", "140437.437000", "140437.437000", "140437.437000", "140437.437000", "140437.437000", "140437.437000", "140437.453000", "140437.453000", "140437.453000", "140437.453000", "140437.453000", "140437.453000", "140457.406000", "140457.421000", "140457.421000", "140457.421000", "140457.421000", "140457.421000", "140457.421000", "140457.421000", "140457.437000", "140457.437000", "140457.437000", "140457.437000", "140457.437000", "140457.437000", "140457.437000", "140457.453000", "140457.453000", "140457.453000", "140457.453000", "140457.453000", "140517.406000", "140517.421000", "140517.421000", "140517.421000", "140517.421000", "140517.421000", "140517.421000", "140517.421000", "140517.437000", "140517.437000", "140517.437000", "140517.437000", "140517.437000", "140517.437000", "140517.437000", "140517.437000", "140517.453000", "140517.453000", "140517.453000", "140517.453000", "140537.406000", "140537.421000", "140537.421000", "140537.421000", "140537.421000", "140537.421000", "140537.437000", "140537.437000", "140537.437000", "140537.437000", "140537.437000", "140537.437000", "140537.437000", "140537.453000", "140537.453000", "140537.453000", "140537.453000", "140537.453000", "140537.453000", "140537.453000", "140557.406000", "140557.421000", "140557.421000", "140557.437000", "140557.437000", "140557.437000", "140557.437000", "140557.437000", "140557.437000", "140557.437000", "140557.453000", "140557.453000", "140557.453000", "140557.453000", "140557.453000", "140557.453000", "140557.468000", "140557.468000", "140557.468000", "140557.468000", "140617.406000", "140617.421000", "140617.421000", "140617.421000", "140617.421000", "140617.421000", "140617.437000", "140617.437000", "140617.437000", "140617.437000", "140617.437000", "140617.437000", "140617.437000", "140617.437000", "140617.453000", "140617.453000", "140617.453000", "140617.453000", "140617.453000", "140617.453000", "140637.406000", "140637.421000", "140637.421000", "140637.421000", "140637.421000", "140637.421000", "140637.421000", "140637.421000", "140637.437000", "140637.437000", "140637.437000", "140637.437000", "140637.437000", "140637.437000", "140637.437000", "140637.453000", "140637.453000", "140637.453000", "140637.453000", "140637.453000", "140657.406000", "140657.421000", "140657.421000", "140657.421000", "140657.421000", "140657.421000", "140657.421000", "140657.421000", "140657.437000", "140657.437000", "140657.437000", "140657.437000", "140657.437000", "140657.437000", "140657.437000", "140657.453000", "140657.453000", "140657.453000", "140657.468000", "140657.468000", "140717.406000", "140717.421000", "140717.421000", "140717.421000", "140717.421000", "140717.421000", "140717.421000", "140717.421000", "140717.437000", "140717.437000", "140717.437000", "140717.437000", "140717.437000", "140717.437000", "140717.437000", "140717.453000", "140717.453000", "140717.453000", "140717.453000", "140717.453000", "140737.406000", "140737.421000", "140737.421000", "140737.421000", "140737.421000", "140737.421000", "140737.421000", "140737.437000", "140737.437000", "140737.437000", "140737.437000", "140737.437000", "140737.437000", "140737.437000", "140737.453000", "140737.453000", "140737.453000", "140737.453000", "140737.453000", "140737.453000", "140757.406000", "140757.421000", "140757.421000", "140757.421000", "140757.421000", "140757.421000", "140757.421000", "140757.437000", "140757.437000", "140757.437000", "140757.437000", "140757.437000", "140757.437000", "140757.437000", "140757.437000", "140757.453000", "140757.453000", "140757.453000", "140757.453000", "140757.453000", "140821.296000", "140821.296000", "140821.296000", "140821.296000", "140821.296000", "140821.312000", "140821.312000", "140821.312000", "140821.312000", "140821.312000", "140821.312000", "140821.312000", "140821.312000", "140821.328000", "140821.328000", "140821.328000", "140821.328000", "140821.343000", "140821.343000"],
      "InstanceCreationTime": ["140317.453000", "140317.453000", "140317.453000", "140317.453000", "140317.453000", "140317.453000", "140317.468000", "140317.468000", "140317.468000", "140317.468000", "140317.468000", "140317.468000", "140317.468000", "140317.484000", "140317.484000", "140317.484000", "140317.484000", "140317.484000", "140317.484000", "140317.484000", "140317.484000", "140317.500000", "140317.500000", "140317.500000", "140317.500000", "140317.500000", "140317.500000", "140317.515000", "140317.515000", "140317.515000", "140317.515000", "140337.406000", "140337.421000", "140337.421000", "140337.421000", "140337.421000", "140337.421000", "140337.421000", "140337.421000", "140337.437000", "140337.437000", "140337.437000", "140337.437000", "140337.437000", "140337.437000", "140337.437000", "140337.453000", "140337.453000", "140337.453000", "140337.453000", "140337.453000", "140357.406000", "140357.421000", "140357.421000", "140357.421000", "140357.421000", "140357.421000", "140357.421000", "140357.437000", "140357.437000", "140357.437000", "140357.437000", "140357.437000", "140357.437000", "140357.437000", "140357.453000", "140357.453000", "140357.453000", "140357.453000", "140357.453000", "140357.453000", "140417.406000", "140417.421000", "140417.421000", "140417.421000", "140417.421000", "140417.421000", "140417.421000", "140417.421000", "140417.437000", "140417.437000", "140417.437000", "140417.437000", "140417.437000", "140417.437000", "140417.437000", "140417.453000", "140417.453000", "140417.453000", "140417.453000", "140417.453000", "140437.406000", "140437.421000", "140437.421000", "140437.421000", "140437.421000", "140437.421000", "140437.421000", "140437.421000", "140437.437000", "140437.437000", "140437.437000", "140437.437000", "140437.437000", "140437.437000", "140437.453000", "140437.453000", "140437.453000", "140437.453000", "140437.453000", "140437.453000", "140457.406000", "140457.421000", "140457.421000", "140457.421000", "140457.421000", "140457.421000", "140457.421000", "140457.421000", "140457.437000", "140457.437000", "140457.437000", "140457.437000", "140457.437000", "140457.437000", "140457.437000", "140457.453000", "140457.453000", "140457.453000", "140457.453000", "140457.453000", "140517.406000", "140517.421000", "140517.421000", "140517.421000", "140517.421000", "140517.421000", "140517.421000", "140517.421000", "140517.437000", "140517.437000", "140517.437000", "140517.437000", "140517.437000", "140517.437000", "140517.437000", "140517.437000", "140517.453000", "140517.453000", "140517.453000", "140517.453000", "140537.406000", "140537.421000", "140537.421000", "140537.421000", "140537.421000", "140537.421000", "140537.437000", "140537.437000", "140537.437000", "140537.437000", "140537.437000", "140537.437000", "140537.437000", "140537.453000", "140537.453000", "140537.453000", "140537.453000", "140537.453000", "140537.453000", "140537.453000", "140557.406000", "140557.421000", "140557.421000", "140557.437000", "140557.437000", "140557.437000", "140557.437000", "140557.437000", "140557.437000", "140557.437000", "140557.453000", "140557.453000", "140557.453000", "140557.453000", "140557.453000", "140557.453000", "140557.468000", "140557.468000", "140557.468000", "140557.468000", "140617.406000", "140617.421000", "140617.421000", "140617.421000", "140617.421000", "140617.421000", "140617.437000", "140617.437000", "140617.437000", "140617.437000", "140617.437000", "140617.437000", "140617.437000", "140617.437000", "140617.453000", "140617.453000", "140617.453000", "140617.453000", "140617.453000", "140617.453000", "140637.406000", "140637.421000", "140637.421000", "140637.421000", "140637.421000", "140637.421000", "140637.421000", "140637.421000", "140637.437000", "140637.437000", "140637.437000", "140637.437000", "140637.437000", "140637.437000", "140637.437000", "140637.453000", "140637.453000", "140637.453000", "140637.453000", "140637.453000", "140657.406000", "140657.421000", "140657.421000", "140657.421000", "140657.421000", "140657.421000", "140657.421000", "140657.421000", "140657.437000", "140657.437000", "140657.437000", "140657.437000", "140657.437000", "140657.437000", "140657.437000", "140657.453000", "140657.453000", "140657.453000", "140657.468000", "140657.468000", "140717.406000", "140717.421000", "140717.421000", "140717.421000", "140717.421000", "140717.421000", "140717.421000", "140717.421000", "140717.437000", "140717.437000", "140717.437000", "140717.437000", "140717.437000", "140717.437000", "140717.437000", "140717.453000", "140717.453000", "140717.453000", "140717.453000", "140717.453000", "140737.406000", "140737.421000", "140737.421000", "140737.421000", "140737.421000", "140737.421000", "140737.421000", "140737.437000", "140737.437000", "140737.437000", "140737.437000", "140737.437000", "140737.437000", "140737.437000", "140737.453000", "140737.453000", "140737.453000", "140737.453000", "140737.453000", "140737.453000", "140757.406000", "140757.421000", "140757.421000", "140757.421000", "140757.421000", "140757.421000", "140757.421000", "140757.437000", "140757.437000", "140757.437000", "140757.437000", "140757.437000", "140757.437000", "140757.437000", "140757.437000", "140757.453000", "140757.453000", "140757.453000", "140757.453000", "140757.453000", "140821.296000", "140821.296000", "140821.296000", "140821.296000", "140821.296000", "140821.312000", "140821.312000", "140821.312000", "140821.312000", "140821.312000", "140821.312000", "140821.312000", "140821.312000", "140821.328000", "140821.328000", "140821.328000", "140821.328000", "140821.343000", "140821.343000"],
      "InstanceNumber": [1, 2, 3, 4, 5, 6, 7, 8, 9, 10, 11, 12, 13, 14, 15, 16, 17, 18, 19, 20, 21, 22, 23, 24, 25, 26, 27, 28, 29, 30, 31, 32, 33, 34, 35, 36, 37, 38, 39, 40, 41, 42, 43, 44, 45, 46, 47, 48, 49, 50, 51, 52, 53, 54, 55, 56, 57, 58, 59, 60, 61, 62, 63, 64, 65, 66, 67, 68, 69, 70, 71, 72, 73, 74, 75, 76, 77, 78, 79, 80, 81, 82, 83, 84, 85, 86, 87, 88, 89, 90, 91, 92, 93, 94, 95, 96, 97, 98, 99, 100, 101, 102, 103, 104, 105, 106, 107, 108, 109, 110, 111, 112, 113, 114, 115, 116, 117, 118, 119, 120, 121, 122, 123, 124, 125, 126, 127, 128, 129, 130, 131, 132, 133, 134, 135, 136, 137, 138, 139, 140, 141, 142, 143, 144, 145, 146, 147, 148, 149, 150, 151, 152, 153, 154, 155, 156, 157, 158, 159, 160, 161, 162, 163, 164, 165, 166, 167, 168, 169, 170, 171, 172, 173, 174, 175, 176, 177, 178, 179, 180, 181, 182, 183, 184, 185, 186, 187, 188, 189, 190, 191, 192, 193, 194, 195, 196, 197, 198, 199, 200, 201, 202, 203, 204, 205, 206, 207, 208, 209, 210, 211, 212, 213, 214, 215, 216, 217, 218, 219, 220, 221, 222, 223, 224, 225, 226, 227, 228, 229, 230, 231, 232, 233, 234, 235, 236, 237, 238, 239, 240, 241, 242, 243, 244, 245, 246, 247, 248, 249, 250, 251, 252, 253, 254, 255, 256, 257, 258, 259, 260, 261, 262, 263, 264, 265, 266, 267, 268, 269, 270, 271, 272, 273, 274, 275, 276, 277, 278, 279, 280, 281, 282, 283, 284, 285, 286, 287, 288, 289, 290, 291, 292, 293, 294, 295, 296, 297, 298, 299, 300, 301, 302, 303, 304, 305, 306, 307, 308, 309, 310, 311, 312, 313, 314, 315, 316, 317, 318, 319, 320, 321, 322, 323, 324, 325, 326, 327, 328, 329, 330],
      "LargestImagePixelValue": [1825, 1825, 1832, 1839, 1801, 1784, 1800, 1837, 1795, 1778, 1769, 1777, 1809, 1778, 1771, 1790, 1758, 1793, 1775, 1768, 1758, 1769, 1796, 1787, 1765, 1771, 1771, 1771, 1761, 1779, 1799, 1789, 1750, 1861, 1797, 1744, 1725, 1750, 1740, 1756, 1779, 1745, 1775, 1804, 1788, 1816, 1774, 1767, 1799, 1767, 1798, 1782, 1766, 1765, 1736, 1761, 1736, 1757, 1791, 1739, 1734, 1793, 1758, 1731, 1741, 1741, 1734, 1747, 1739, 1760, 1760, 1754, 1743, 1750, 1735, 1763, 1750, 1734, 1738, 1749, 1762, 1788, 1734, 1739, 1746, 1758, 1770, 1740, 1752, 1773, 1765, 1755, 1727, 1765, 1785, 1761, 1757, 1731, 1758, 1803, 1795, 1772, 1744, 1803, 1748, 1772, 1784, 1786, 1766, 1739, 1747, 1782, 1752, 1729, 1776, 1796, 1769, 1767, 1761, 1799, 1766, 1773, 1763, 1769, 1782, 1793, 1794, 1813, 1740, 1801, 1813, 1737, 1803, 1794, 1748, 1778, 1784, 1769, 1761, 1782, 1780, 1813, 1751, 1774, 1760, 1770, 1744, 1769, 1790, 1783, 1775, 1788, 1778, 1766, 1765, 1781, 1769, 1777, 1792, 1796, 1802, 1822, 1778, 1755, 1791, 1794, 1788, 1792, 1807, 1800, 1780, 1788, 1798, 1801, 1796, 1804, 1795, 1798, 1825, 1767, 1799, 1801, 1787, 1775, 1739, 1724, 1749, 1760, 1782, 1791, 1762, 1827, 1809, 1807, 1796, 1833, 1821, 1819, 1787, 1803, 1810, 1834, 1799, 1786, 1790, 1817, 1790, 1804, 1774, 1717, 1848, 1917, 1829, 1864, 1818, 1776, 1756, 1760, 1755, 1751, 1752, 1793, 1768, 1751, 1780, 1778, 1787, 1776, 1754, 1768, 1776, 1791, 1764, 1766, 1797, 1803, 1798, 1807, 1784, 1792, 1784, 1782, 1790, 1795, 1781, 1781, 1783, 1795, 1765, 1748, 1794, 1851, 1825, 1800, 1788, 1829, 1804, 1783, 1819, 1828, 1819, 1824, 1792, 1739, 1755, 1805, 1775, 1781, 1780, 1774, 1774, 1795, 1786, 1802, 1808, 1809, 1803, 1794, 1795, 1781, 1840, 1787, 1798, 1810, 1798, 1822, 1794, 1826, 1800, 1782, 1800, 1790, 1800, 1810, 1785, 1842, 1822, 1802, 1805, 1812, 1833, 1818, 1833, 1825, 1816, 1813, 1850, 1865, 1818, 1832, 1835, 1875, 1858, 1822, 1824, 1837, 1872, 1866, 1833, 1865, 1856, 1882, 1858, 1858, 1865, 1858, 1879, 1874, 1865, 1864],
      "WindowCenter": [398.0, 397.0, 397.0, 398.0, 399.0, 399.0, 398.0, 398.0, 399.0, 399.0, 399.0, 398.0, 398.0, 399.0, 401.0, 401.0, 401.0, 401.0, 399.0, 398.0, 397.0, 397.0, 397.0, 397.0, 396.0, 397.0, 397.0, 397.0, 397.0, 398.0, 399.0, 399.0, 399.0, 400.0, 399.0, 398.0, 397.0, 397.0, 397.0, 397.0, 397.0, 397.0, 397.0, 398.0, 398.0, 398.0, 399.0, 398.0, 398.0, 398.0, 399.0, 399.0, 399.0, 401.0, 400.0, 400.0, 399.0, 399.0, 398.0, 396.0, 396.0, 396.0, 397.0, 398.0, 399.0, 399.0, 399.0, 398.0, 398.0, 397.0, 397.0, 398.0, 399.0, 399.0, 398.0, 398.0, 398.0, 397.0, 396.0, 395.0, 396.0, 396.0, 396.0, 396.0, 396.0, 397.0, 397.0, 398.0, 399.0, 400.0, 400.0, 399.0, 399.0, 399.0, 399.0, 398.0, 397.0, 397.0, 398.0, 398.0, 398.0, 398.0, 398.0, 399.0, 400.0, 400.0, 401.0, 400.0, 399.0, 398.0, 397.0, 398.0, 398.0, 398.0, 399.0, 398.0, 398.0, 398.0, 398.0, 397.0, 396.0, 397.0, 398.0, 399.0, 399.0, 399.0, 398.0, 397.0, 396.0, 397.0, 399.0, 399.0, 399.0, 398.0, 398.0, 399.0, 399.0, 398.0, 396.0, 396.0, 396.0, 397.0, 397.0, 397.0, 397.0, 396.0, 396.0, 396.0, 397.0, 398.0, 398.0, 398.0, 398.0, 396.0, 395.0, 395.0, 395.0, 395.0, 396.0, 396.0, 397.0, 398.0, 398.0, 398.0, 399.0, 399.0, 398.0, 397.0, 398.0, 398.0, 399.0, 400.0, 401.0, 400.0, 400.0, 398.0, 398.0, 399.0, 399.0, 398.0, 398.0, 398.0, 397.0, 397.0, 398.0, 398.0, 398.0, 398.0, 398.0, 398.0, 397.0, 397.0, 398.0, 397.0, 397.0, 397.0, 397.0, 397.0, 396.0, 396.0, 397.0, 397.0, 397.0, 396.0, 396.0, 397.0, 398.0, 397.0, 397.0, 396.0, 397.0, 399.0, 397.0, 397.0, 397.0, 397.0, 397.0, 396.0, 397.0, 397.0, 396.0, 396.0, 395.0, 396.0, 397.0, 398.0, 398.0, 397.0, 397.0, 396.0, 396.0, 396.0, 395.0, 396.0, 397.0, 397.0, 397.0, 397.0, 397.0, 397.0, 398.0, 399.0, 400.0, 399.0, 398.0, 397.0, 397.0, 397.0, 396.0, 395.0, 396.0, 396.0, 397.0, 396.0, 397.0, 398.0, 397.0, 397.0, 398.0, 399.0, 399.0, 399.0, 400.0, 401.0, 401.0, 400.0, 397.0, 396.0, 395.0, 395.0, 395.0, 396.0, 398.0, 400.0, 402.0, 401.0, 400.0, 398.0, 397.0, 397.0, 397.0, 398.0, 398.0, 397.0, 397.0, 397.0, 397.0, 397.0, 396.0, 397.0, 399.0, 400.0, 400.0, 398.0, 397.0, 398.0, 397.0, 397.0, 399.0, 399.0, 399.0, 398.0, 397.0, 397.0, 396.0, 397.0, 398.0, 399.0, 399.0, 398.0, 398.0, 399.0, 399.0, 399.0, 399.0, 399.0, 399.0, 399.0, 398.0, 397.0, 397.0, 398.0, 399.0, 399.0, 398.0, 397.0, 398.0, 398.0, 397.0, 397.0],
