{
  "AcquisitionMatrixPE": 104,
  "AcquisitionNumber": 1,
  "AcquisitionTime": "12:24:53.237500",
  "BandwidthPerPixelPhaseEncode": 43.054,
  "BaseResolution": 104,
  "CoilString": "C:E1_2",
  "ConversionSoftware": "dcm2niix",
  "ConversionSoftwareVersion": "v1.0.20191031",
  "DerivedVendorReportedEchoSpacing": 0.000669999,
  "DeviceSerialNumber": "18932",
  "DwellTime": 2.8e-06,
  "EchoTime": 0.02,
  "EffectiveEchoSpacing": 0.000223333,
  "FlipAngle": 30,
  "ImageComments": "Unaliased_MB2_PE2",
  "ImageOrientationPatientDICOM": [1, 0, 0, 0, 0.981627, -0.190809],
  "ImageType": [
    "ORIGINAL",
    "PRIMARY",
    "M",
    "MB",
    "ND",
    "MOSAIC"
],
  "ImagingFrequency": 297.229,
  "InPlanePhaseEncodingDirectionDICOM": "COL",
  "InstitutionAddress": "Richmond_Street_North_1151_London_409EF2_Ontario_CA_N6A_5B7",
  "InstitutionName": "Robarts_Reserch_Institute",
  "InstitutionalDepartmentName": "Department",
  "MRAcquisitionType": "2D",
  "MagneticFieldStrength": 6.98,
  "Manufacturer": "Siemens",
  "ManufacturersModelName": "Investigational_Device_7T",
  "Modality": "MR",
  "MultibandAccelerationFactor": 2,
  "ParallelReductionFactorInPlane": 3,
  "PartialFourier": 0.875,
  "PatientPosition": "HFS",
  "PercentPhaseFOV": 100,
  "PhaseEncodingDirection": "j-",
  "PhaseEncodingSteps": 91,
  "PhaseResolution": 1,
  "PixelBandwidth": 1717,
  "ProcedureStepDescription": "Diedrichsen_SeqRep4",
  "ProtocolName": "mbep2d_bold_mb2_p3_AP_2iso",
  "PulseSequenceDetails": "%CustomerSeq%_cmrr_mbep2d_bold",
  "ReceiveCoilName": "CFMM_8Tx32Rx",
  "ReconMatrixPE": 104,
  "RefLinesPE": 36,
  "RepetitionTime": 1,
  "ScanOptions": "PFP_FS",
  "ScanningSequence": "EP",
  "SequenceName": "epfid2d1_104",
  "SequenceVariant": "SK_SS",
  "SeriesDescription": "mbep2d_bold_mb2_p3_AP_2iso",
  "SeriesNumber": 30,
  "ShimSetting": [25, 2065, 4, 1582, -21, -142, 282, -97],
  "SliceThickness": 2,
  "SliceTiming": [0, 0.2275, 0.455, 0.6825, 0.9125, 0.135, 0.365, 0.5925, 0.82, 0.045, 0.2725, 0.5, 0.73, 0.9575, 0.1825, 0.41, 0.6375, 0.865, 0.09, 0.3175, 0.5475, 0.775, 0, 0.2275, 0.455, 0.6825, 0.9125, 0.135, 0.365, 0.5925, 0.82, 0.045, 0.2725, 0.5, 0.73, 0.9575, 0.1825, 0.41, 0.6375, 0.865, 0.09, 0.3175, 0.5475, 0.775],
  "SoftwareVersions": "syngo_MR_B17",
  "SpacingBetweenSlices": 2,
  "StationName": "MASTER",
  "TaskName": "dsp",
  "TotalReadoutTime": 0.0230033,
  "TxRefAmp": 120,
  "dcmmeta_affine": [
    [-2.0, 0.0, 0.0, 105.4527816772461],
    [0.0, 1.9632543325424194, -0.3816179633140564, -114.44151306152344],
    [0.0, 0.3816179633140564, 1.9632543325424194, -53.73161315917969],
    [0.0, 0.0, 0.0, 1.0]
],
  "dcmmeta_reorient_transform": [
    [0.0, -1.0, 0.0, 103.0],
    [1.0, 0.0, 0.0, 0.0],
    [0.0, 0.0, 1.0, 0.0],
    [0.0, 0.0, 0.0, 1.0]
],
  "dcmmeta_shape": [104, 104, 44, 330],
  "dcmmeta_slice_dim": 2,
  "dcmmeta_version": 0.6,
  "global": {
    "const": {
      "AcquisitionMatrix": [104, 0, 0, 104],
      "AngioFlag": "N",
      "BitsAllocated": 16,
      "BitsStored": 12,
      "Columns": 728,
      "EchoNumbers": 1,
      "EchoTime": 20.0,
      "EchoTrainLength": 1,
      "FlipAngle": 30.0,
      "HighBit": 11,
      "ImageOrientationPatient": [1.0, 0.0, 0.0, 0.0, 0.98162718523795, -0.1908089861663],
      "ImagePositionPatient": [-729.45278453827, -700.30904958583, 104.63984555457],
      "ImageType": [
        "ORIGINAL",
        "PRIMARY",
        "M",
        "MB",
        "ND",
        "MOSAIC"
],
      "ImagedNucleus": "1H",
      "ImagingFrequency": 297.228786,
      "InPlanePhaseEncodingDirection": "COL",
      "MRAcquisitionType": "2D",
      "MagneticFieldStrength": 6.98,
      "Manufacturer": "SIEMENS",
      "ManufacturerModelName": "Investigational_Device_7T",
      "Modality": "MR",
      "NumberOfAverages": 1.0,
      "NumberOfPhaseEncodingSteps": 91,
      "PercentPhaseFieldOfView": 100.0,
      "PercentSampling": 100.0,
      "PerformedProcedureStepStartTime": "110711.390000",
      "PhotometricInterpretation": "MONOCHROME2",
      "PixelBandwidth": 1717.0,
      "PixelRepresentation": 0,
      "PixelSpacing": [2.0, 2.0],
      "ProtocolName": "mbep2d_bold_mb2_p3_AP 2iso",
      "RepetitionTime": 1000.0,
      "Rows": 728,
      "SAR": 0.0,
      "SamplesPerPixel": 1,
      "ScanOptions": [
        "PFP",
        "FS"
],
      "ScanningSequence": "EP",
      "SequenceName": "epfid2d1_104",
      "SequenceVariant": [
        "SK",
        "SS"
],
      "SeriesDescription": "mbep2d_bold_mb2_p3_AP 2iso",
      "SeriesNumber": 30,
      "SeriesTime": "122533.718000",
      "SliceLocation": -30.907942699106,
      "SliceThickness": 2.0,
      "SmallestImagePixelValue": 0,
      "SoftwareVersions": "syngo MR B17",
      "SpacingBetweenSlices": 1.9999999851176,
      "SpecificCharacterSet": "ISO_IR 100",
      "StudyID": "1",
      "StudyTime": "110711.328000",
      "TransmitCoilName": "CFMM_8Tx32Rx",
      "VariableFlipAngleFlag": "N",
      "WindowCenterWidthExplanation": "Algo1",
      "dBdt": 0.0},
    "slices": {}
  },
  "time": {
    "samples": {
      "AcquisitionNumber": [1, 2, 3, 4, 5, 6, 7, 8, 9, 10, 11, 12, 13, 14, 15, 16, 17, 18, 19, 20, 21, 22, 23, 24, 25, 26, 27, 28, 29, 30, 31, 32, 33, 34, 35, 36, 37, 38, 39, 40, 41, 42, 43, 44, 45, 46, 47, 48, 49, 50, 51, 52, 53, 54, 55, 56, 57, 58, 59, 60, 61, 62, 63, 64, 65, 66, 67, 68, 69, 70, 71, 72, 73, 74, 75, 76, 77, 78, 79, 80, 81, 82, 83, 84, 85, 86, 87, 88, 89, 90, 91, 92, 93, 94, 95, 96, 97, 98, 99, 100, 101, 102, 103, 104, 105, 106, 107, 108, 109, 110, 111, 112, 113, 114, 115, 116, 117, 118, 119, 120, 121, 122, 123, 124, 125, 126, 127, 128, 129, 130, 131, 132, 133, 134, 135, 136, 137, 138, 139, 140, 141, 142, 143, 144, 145, 146, 147, 148, 149, 150, 151, 152, 153, 154, 155, 156, 157, 158, 159, 160, 161, 162, 163, 164, 165, 166, 167, 168, 169, 170, 171, 172, 173, 174, 175, 176, 177, 178, 179, 180, 181, 182, 183, 184, 185, 186, 187, 188, 189, 190, 191, 192, 193, 194, 195, 196, 197, 198, 199, 200, 201, 202, 203, 204, 205, 206, 207, 208, 209, 210, 211, 212, 213, 214, 215, 216, 217, 218, 219, 220, 221, 222, 223, 224, 225, 226, 227, 228, 229, 230, 231, 232, 233, 234, 235, 236, 237, 238, 239, 240, 241, 242, 243, 244, 245, 246, 247, 248, 249, 250, 251, 252, 253, 254, 255, 256, 257, 258, 259, 260, 261, 262, 263, 264, 265, 266, 267, 268, 269, 270, 271, 272, 273, 274, 275, 276, 277, 278, 279, 280, 281, 282, 283, 284, 285, 286, 287, 288, 289, 290, 291, 292, 293, 294, 295, 296, 297, 298, 299, 300, 301, 302, 303, 304, 305, 306, 307, 308, 309, 310, 311, 312, 313, 314, 315, 316, 317, 318, 319, 320, 321, 322, 323, 324, 325, 326, 327, 328, 329, 330],
      "AcquisitionTime": ["122453.237500", "122454.240000", "122455.245000", "122456.247500", "122457.252500", "122458.257500", "122459.260000", "122500.265000", "122501.270000", "122502.272500", "122503.277500", "122504.280000", "122505.285000", "122506.290000", "122507.292500", "122508.297500", "122509.300000", "122510.305000", "122511.310000", "122512.312500", "122513.317500", "122514.320000", "122515.325000", "122516.330000", "122517.332500", "122518.337500", "122519.340000", "122520.345000", "122521.350000", "122522.352500", "122523.357500", "122524.360000", "122525.365000", "122526.370000", "122527.372500", "122528.377500", "122529.382500", "122530.385000", "122531.390000", "122532.392500", "122533.397500", "122534.402500", "122535.405000", "122536.410000", "122537.412500", "122538.417500", "122539.422500", "122540.425000", "122541.430000", "122542.432500", "122543.437500", "122544.442500", "122545.445000", "122546.450000", "122547.452500", "122548.457500", "122549.462500", "122550.465000", "122551.470000", "122552.472500", "122553.477500", "122554.482500", "122555.485000", "122556.490000", "122557.492500", "122558.497500", "122559.502500", "122600.505000", "122601.510000", "122602.515000", "122603.517500", "122604.522500", "122605.525000", "122606.530000", "122607.535000", "122608.537500", "122609.542500", "122610.545000", "122611.550000", "122612.555000", "122613.557500", "122614.562500", "122615.565000", "122616.570000", "122617.575000", "122618.577500", "122619.582500", "122620.585000", "122621.590000", "122622.595000", "122623.597500", "122624.602500", "122625.605000", "122626.610000", "122627.615000", "122628.617500", "122629.622500", "122630.627500", "122631.630000", "122632.635000", "122633.637500", "122634.642500", "122635.647500", "122636.650000", "122637.655000", "122638.657500", "122639.662500", "122640.667500", "122641.670000", "122642.675000", "122643.677500", "122644.682500", "122645.687500", "122646.690000", "122647.695000", "122648.697500", "122649.702500", "122650.707500", "122651.710000", "122652.715000", "122653.717500", "122654.722500", "122655.727500", "122656.730000", "122657.735000", "122658.737500", "122659.742500", "122700.747500", "122701.750000", "122702.755000", "122703.760000", "122704.762500", "122705.767500", "122706.770000", "122707.775000", "122708.780000", "122709.782500", "122710.787500", "122711.790000", "122712.795000", "122713.800000", "122714.802500", "122715.807500", "122716.810000", "122717.815000", "122718.820000", "122719.822500", "122720.827500", "122721.830000", "122722.835000", "122723.840000", "122724.842500", "122725.847500", "122726.850000", "122727.855000", "122728.860000", "122729.862500", "122730.867500", "122731.870000", "122732.875000", "122733.880000", "122734.882500", "122735.887500", "122736.892500", "122737.895000", "122738.900000", "122739.902500", "122740.907500", "122741.912500", "122742.915000", "122743.920000", "122744.922500", "122745.927500", "122746.932500", "122747.935000", "122748.940000", "122749.942500", "122750.947500", "122751.952500", "122752.955000", "122753.960000", "122754.962500", "122755.967500", "122756.972500", "122757.975000", "122758.980000", "122759.982500", "122800.987500", "122801.992500", "122802.995000", "122804.000000", "122805.005000", "122806.007500", "122807.012500", "122808.015000", "122809.020000", "122810.025000", "122811.027500", "122812.032500", "122813.035000", "122814.040000", "122815.045000", "122816.047500", "122817.052500", "122818.055000", "122819.060000", "122820.065000", "122821.067500", "122822.072500", "122823.075000", "122824.080000", "122825.085000", "122826.087500", "122827.092500", "122828.095000", "122829.100000", "122830.105000", "122831.107500", "122832.112500", "122833.115000", "122834.120000", "122835.125000", "122836.127500", "122837.132500", "122838.137500", "122839.140000", "122840.145000", "122841.147500", "122842.152500", "122843.157500", "122844.160000", "122845.165000", "122846.167500", "122847.172500", "122848.177500", "122849.180000", "122850.185000", "122851.187500", "122852.192500", "122853.197500", "122854.200000", "122855.205000", "122856.207500", "122857.212500", "122858.217500", "122859.220000", "122900.225000", "122901.227500", "122902.232500", "122903.237500", "122904.240000", "122905.245000", "122906.247500", "122907.252500", "122908.257500", "122909.260000", "122910.265000", "122911.270000", "122912.272500", "122913.277500", "122914.280000", "122915.285000", "122916.290000", "122917.292500", "122918.297500", "122919.300000", "122920.305000", "122921.310000", "122922.312500", "122923.317500", "122924.320000", "122925.325000", "122926.330000", "122927.332500", "122928.337500", "122929.340000", "122930.345000", "122931.350000", "122932.352500", "122933.357500", "122934.360000", "122935.365000", "122936.370000", "122937.372500", "122938.377500", "122939.382500", "122940.385000", "122941.390000", "122942.392500", "122943.397500", "122944.402500", "122945.405000", "122946.410000", "122947.412500", "122948.417500", "122949.422500", "122950.425000", "122951.430000", "122952.432500", "122953.437500", "122954.442500", "122955.445000", "122956.450000", "122957.452500", "122958.457500", "122959.462500", "123000.465000", "123001.470000", "123002.472500", "123003.477500", "123004.482500", "123005.485000", "123006.490000", "123007.492500", "123008.497500", "123009.502500", "123010.505000", "123011.510000", "123012.515000", "123013.517500", "123014.522500", "123015.525000", "123016.530000", "123017.535000", "123018.537500", "123019.542500", "123020.545000", "123021.550000", "123022.555000", "123023.557500"],
      "ContentTime": ["122533.718000", "122533.718000", "122533.718000", "122533.718000", "122533.734000", "122533.734000", "122533.734000", "122533.734000", "122533.734000", "122533.734000", "122533.734000", "122533.750000", "122533.750000", "122533.750000", "122533.750000", "122533.765000", "122533.765000", "122533.765000", "122533.765000", "122533.765000", "122533.781000", "122533.781000", "122533.781000", "122533.781000", "122533.781000", "122533.781000", "122533.781000", "122533.796000", "122533.796000", "122533.796000", "122533.796000", "122533.796000", "122533.796000", "122533.796000", "122533.812000", "122533.812000", "122533.812000", "122533.812000", "122533.812000", "122553.671000", "122553.687000", "122553.687000", "122553.687000", "122553.687000", "122553.687000", "122553.703000", "122553.703000", "122553.703000", "122553.703000", "122553.703000", "122553.703000", "122553.703000", "122553.718000", "122553.718000", "122553.718000", "122553.718000", "122553.718000", "122553.718000", "122553.718000", "122613.671000", "122613.687000", "122613.687000", "122613.687000", "122613.687000", "122613.687000", "122613.687000", "122613.687000", "122613.703000", "122613.703000", "122613.703000", "122613.703000", "122613.703000", "122613.703000", "122613.703000", "122613.718000", "122613.718000", "122613.718000", "122613.718000", "122613.718000", "122633.671000", "122633.687000", "122633.687000", "122633.687000", "122633.687000", "122633.687000", "122633.703000", "122633.703000", "122633.703000", "122633.703000", "122633.703000", "122633.703000", "122633.718000", "122633.718000", "122633.718000", "122633.718000", "122633.718000", "122633.718000", "122633.734000", "122633.734000", "122653.671000", "122653.687000", "122653.687000", "122653.687000", "122653.687000", "122653.687000", "122653.687000", "122653.687000", "122653.703000", "122653.703000", "122653.703000", "122653.703000", "122653.703000", "122653.703000", "122653.703000", "122653.718000", "122653.718000", "122653.718000", "122653.718000", "122653.718000", "122713.671000", "122713.687000", "122713.687000", "122713.687000", "122713.687000", "122713.687000", "122713.687000", "122713.703000", "122713.703000", "122713.703000", "122713.703000", "122713.703000", "122713.703000", "122713.703000", "122713.703000", "122713.718000", "122713.718000", "122713.718000", "122713.718000", "122713.718000", "122733.671000", "122733.687000", "122733.687000", "122733.687000", "122733.687000", "122733.687000", "122733.687000", "122733.687000", "122733.703000", "122733.703000", "122733.703000", "122733.703000", "122733.703000", "122733.703000", "122733.703000", "122733.718000", "122733.718000", "122733.718000", "122733.718000", "122733.718000", "122753.671000", "122753.687000", "122753.687000", "122753.687000", "122753.687000", "122753.687000", "122753.687000", "122753.687000", "122753.703000", "122753.703000", "122753.703000", "122753.703000", "122753.703000", "122753.703000", "122753.703000", "122753.718000", "122753.718000", "122753.718000", "122753.718000", "122753.718000", "122813.671000", "122813.687000", "122813.687000", "122813.687000", "122813.687000", "122813.703000", "122813.703000", "122813.703000", "122813.703000", "122813.703000", "122813.718000", "122813.718000", "122813.718000", "122813.718000", "122813.718000", "122813.718000", "122813.718000", "122813.734000", "122813.734000", "122813.734000", "122833.671000", "122833.687000", "122833.687000", "122833.687000", "122833.687000", "122833.687000", "122833.687000", "122833.687000", "122833.703000", "122833.703000", "122833.703000", "122833.703000", "122833.703000", "122833.703000", "122833.703000", "122833.703000", "122833.718000", "122833.718000", "122833.718000", "122833.718000", "122853.671000", "122853.687000", "122853.687000", "122853.687000", "122853.687000", "122853.687000", "122853.687000", "122853.687000", "122853.703000", "122853.703000", "122853.703000", "122853.703000", "122853.703000", "122853.703000", "122853.718000", "122853.718000", "122853.718000", "122853.718000", "122853.718000", "122853.718000", "122913.671000", "122913.687000", "122913.687000", "122913.687000", "122913.687000", "122913.687000", "122913.687000", "122913.687000", "122913.703000", "122913.703000", "122913.703000", "122913.703000", "122913.703000", "122913.703000", "122913.703000", "122913.703000", "122913.718000", "122913.718000", "122913.718000", "122913.718000", "122933.671000", "122933.687000", "122933.687000", "122933.687000", "122933.687000", "122933.687000", "122933.687000", "122933.687000", "122933.703000", "122933.703000", "122933.703000", "122933.703000", "122933.703000", "122933.703000", "122933.703000", "122933.718000", "122933.718000", "122933.718000", "122933.718000", "122933.718000", "122953.671000", "122953.687000", "122953.687000", "122953.687000", "122953.687000", "122953.687000", "122953.687000", "122953.687000", "122953.703000", "122953.703000", "122953.703000", "122953.703000", "122953.703000", "122953.703000", "122953.703000", "122953.718000", "122953.718000", "122953.718000", "122953.718000", "122953.718000", "123013.671000", "123013.687000", "123013.687000", "123013.687000", "123013.687000", "123013.703000", "123013.703000", "123013.703000", "123013.703000", "123013.703000", "123013.718000", "123013.718000", "123013.718000", "123013.718000", "123013.718000", "123013.718000", "123013.718000", "123013.734000", "123013.734000", "123013.734000", "123029.234000", "123029.234000", "123029.234000", "123029.234000", "123029.250000", "123029.250000", "123029.250000", "123029.250000", "123029.250000", "123029.250000", "123029.250000"],
      "InstanceCreationTime": ["122533.718000", "122533.718000", "122533.718000", "122533.718000", "122533.734000", "122533.734000", "122533.734000", "122533.734000", "122533.734000", "122533.734000", "122533.734000", "122533.750000", "122533.750000", "122533.750000", "122533.750000", "122533.765000", "122533.765000", "122533.765000", "122533.765000", "122533.765000", "122533.781000", "122533.781000", "122533.781000", "122533.781000", "122533.781000", "122533.781000", "122533.781000", "122533.796000", "122533.796000", "122533.796000", "122533.796000", "122533.796000", "122533.796000", "122533.796000", "122533.812000", "122533.812000", "122533.812000", "122533.812000", "122533.812000", "122553.671000", "122553.687000", "122553.687000", "122553.687000", "122553.687000", "122553.687000", "122553.703000", "122553.703000", "122553.703000", "122553.703000", "122553.703000", "122553.703000", "122553.703000", "122553.718000", "122553.718000", "122553.718000", "122553.718000", "122553.718000", "122553.718000", "122553.718000", "122613.671000", "122613.687000", "122613.687000", "122613.687000", "122613.687000", "122613.687000", "122613.687000", "122613.687000", "122613.703000", "122613.703000", "122613.703000", "122613.703000", "122613.703000", "122613.703000", "122613.703000", "122613.718000", "122613.718000", "122613.718000", "122613.718000", "122613.718000", "122633.671000", "122633.687000", "122633.687000", "122633.687000", "122633.687000", "122633.687000", "122633.703000", "122633.703000", "122633.703000", "122633.703000", "122633.703000", "122633.703000", "122633.718000", "122633.718000", "122633.718000", "122633.718000", "122633.718000", "122633.718000", "122633.734000", "122633.734000", "122653.671000", "122653.687000", "122653.687000", "122653.687000", "122653.687000", "122653.687000", "122653.687000", "122653.687000", "122653.703000", "122653.703000", "122653.703000", "122653.703000", "122653.703000", "122653.703000", "122653.703000", "122653.718000", "122653.718000", "122653.718000", "122653.718000", "122653.718000", "122713.671000", "122713.687000", "122713.687000", "122713.687000", "122713.687000", "122713.687000", "122713.687000", "122713.703000", "122713.703000", "122713.703000", "122713.703000", "122713.703000", "122713.703000", "122713.703000", "122713.703000", "122713.718000", "122713.718000", "122713.718000", "122713.718000", "122713.718000", "122733.671000", "122733.687000", "122733.687000", "122733.687000", "122733.687000", "122733.687000", "122733.687000", "122733.687000", "122733.703000", "122733.703000", "122733.703000", "122733.703000", "122733.703000", "122733.703000", "122733.703000", "122733.718000", "122733.718000", "122733.718000", "122733.718000", "122733.718000", "122753.671000", "122753.687000", "122753.687000", "122753.687000", "122753.687000", "122753.687000", "122753.687000", "122753.687000", "122753.703000", "122753.703000", "122753.703000", "122753.703000", "122753.703000", "122753.703000", "122753.703000", "122753.718000", "122753.718000", "122753.718000", "122753.718000", "122753.718000", "122813.671000", "122813.687000", "122813.687000", "122813.687000", "122813.687000", "122813.703000", "122813.703000", "122813.703000", "122813.703000", "122813.703000", "122813.718000", "122813.718000", "122813.718000", "122813.718000", "122813.718000", "122813.718000", "122813.718000", "122813.734000", "122813.734000", "122813.734000", "122833.671000", "122833.687000", "122833.687000", "122833.687000", "122833.687000", "122833.687000", "122833.687000", "122833.687000", "122833.703000", "122833.703000", "122833.703000", "122833.703000", "122833.703000", "122833.703000", "122833.703000", "122833.703000", "122833.718000", "122833.718000", "122833.718000", "122833.718000", "122853.671000", "122853.687000", "122853.687000", "122853.687000", "122853.687000", "122853.687000", "122853.687000", "122853.687000", "122853.703000", "122853.703000", "122853.703000", "122853.703000", "122853.703000", "122853.703000", "122853.718000", "122853.718000", "122853.718000", "122853.718000", "122853.718000", "122853.718000", "122913.671000", "122913.687000", "122913.687000", "122913.687000", "122913.687000", "122913.687000", "122913.687000", "122913.687000", "122913.703000", "122913.703000", "122913.703000", "122913.703000", "122913.703000", "122913.703000", "122913.703000", "122913.703000", "122913.718000", "122913.718000", "122913.718000", "122913.718000", "122933.671000", "122933.687000", "122933.687000", "122933.687000", "122933.687000", "122933.687000", "122933.687000", "122933.687000", "122933.703000", "122933.703000", "122933.703000", "122933.703000", "122933.703000", "122933.703000", "122933.703000", "122933.718000", "122933.718000", "122933.718000", "122933.718000", "122933.718000", "122953.671000", "122953.687000", "122953.687000", "122953.687000", "122953.687000", "122953.687000", "122953.687000", "122953.687000", "122953.703000", "122953.703000", "122953.703000", "122953.703000", "122953.703000", "122953.703000", "122953.703000", "122953.718000", "122953.718000", "122953.718000", "122953.718000", "122953.718000", "123013.671000", "123013.687000", "123013.687000", "123013.687000", "123013.687000", "123013.703000", "123013.703000", "123013.703000", "123013.703000", "123013.703000", "123013.718000", "123013.718000", "123013.718000", "123013.718000", "123013.718000", "123013.718000", "123013.718000", "123013.734000", "123013.734000", "123013.734000", "123029.234000", "123029.234000", "123029.234000", "123029.234000", "123029.250000", "123029.250000", "123029.250000", "123029.250000", "123029.250000", "123029.250000", "123029.250000"],
      "InstanceNumber": [1, 2, 3, 4, 5, 6, 7, 8, 9, 10, 11, 12, 13, 14, 15, 16, 17, 18, 19, 20, 21, 22, 23, 24, 25, 26, 27, 28, 29, 30, 31, 32, 33, 34, 35, 36, 37, 38, 39, 40, 41, 42, 43, 44, 45, 46, 47, 48, 49, 50, 51, 52, 53, 54, 55, 56, 57, 58, 59, 60, 61, 62, 63, 64, 65, 66, 67, 68, 69, 70, 71, 72, 73, 74, 75, 76, 77, 78, 79, 80, 81, 82, 83, 84, 85, 86, 87, 88, 89, 90, 91, 92, 93, 94, 95, 96, 97, 98, 99, 100, 101, 102, 103, 104, 105, 106, 107, 108, 109, 110, 111, 112, 113, 114, 115, 116, 117, 118, 119, 120, 121, 122, 123, 124, 125, 126, 127, 128, 129, 130, 131, 132, 133, 134, 135, 136, 137, 138, 139, 140, 141, 142, 143, 144, 145, 146, 147, 148, 149, 150, 151, 152, 153, 154, 155, 156, 157, 158, 159, 160, 161, 162, 163, 164, 165, 166, 167, 168, 169, 170, 171, 172, 173, 174, 175, 176, 177, 178, 179, 180, 181, 182, 183, 184, 185, 186, 187, 188, 189, 190, 191, 192, 193, 194, 195, 196, 197, 198, 199, 200, 201, 202, 203, 204, 205, 206, 207, 208, 209, 210, 211, 212, 213, 214, 215, 216, 217, 218, 219, 220, 221, 222, 223, 224, 225, 226, 227, 228, 229, 230, 231, 232, 233, 234, 235, 236, 237, 238, 239, 240, 241, 242, 243, 244, 245, 246, 247, 248, 249, 250, 251, 252, 253, 254, 255, 256, 257, 258, 259, 260, 261, 262, 263, 264, 265, 266, 267, 268, 269, 270, 271, 272, 273, 274, 275, 276, 277, 278, 279, 280, 281, 282, 283, 284, 285, 286, 287, 288, 289, 290, 291, 292, 293, 294, 295, 296, 297, 298, 299, 300, 301, 302, 303, 304, 305, 306, 307, 308, 309, 310, 311, 312, 313, 314, 315, 316, 317, 318, 319, 320, 321, 322, 323, 324, 325, 326, 327, 328, 329, 330],
      "LargestImagePixelValue": [2100, 2051, 2049, 2084, 2054, 2040, 2041, 1993, 2026, 2030, 2039, 2026, 2037, 2050, 2044, 2064, 2067, 2030, 2054, 2042, 2100, 2030, 2066, 2080, 2080, 2071, 2111, 2065, 2048, 2101, 2074, 2091, 2045, 2027, 2047, 2099, 2019, 2056, 2023, 2064, 2079, 2005, 1993, 2025, 2013, 2034, 2046, 2009, 2029, 2070, 2028, 2054, 2022, 2004, 2017, 2022, 2040, 2038, 2045, 2009, 2042, 2036, 1991, 1992, 2054, 2045, 1998, 1984, 1978, 1997, 2010, 1992, 1959, 1966, 1960, 2082, 1971, 1958, 1997, 1955, 1996, 2016, 2003, 2019, 2011, 2030, 2012, 1921, 1957, 2020, 1980, 1985, 1978, 1968, 1972, 1968, 1919, 1936, 1958, 1921, 2006, 1953, 1930, 1923, 1977, 1981, 1945, 1917, 1922, 1947, 1939, 1998, 1895, 1932, 1966, 1951, 1899, 1918, 1936, 1938, 1944, 1881, 1941, 1903, 1931, 1998, 1987, 2043, 2056, 2076, 2066, 2036, 2032, 1968, 1992, 2015, 1984, 1967, 1979, 1953, 2002, 1929, 1922, 1924, 1951, 1985, 1967, 1897, 1945, 1936, 1919, 1926, 1947, 1956, 1972, 1994, 1969, 1975, 1939, 1972, 1989, 1936, 1955, 1974, 1978, 1977, 2001, 1944, 1950, 1963, 1973, 2015, 1981, 1943, 1967, 2000, 1972, 1948, 1953, 1926, 1976, 2010, 1973, 1917, 1951, 1958, 1954, 1921, 1965, 1975, 1978, 1950, 1920, 1905, 1932, 1996, 1913, 1913, 1928, 1926, 1947, 1963, 1934, 1939, 1946, 1943, 1942, 1900, 1919, 1900, 1949, 1914, 1920, 1921, 1926, 1929, 1940, 1917, 1886, 1938, 1904, 1935, 1935, 1915, 1955, 1978, 1909, 2032, 2095, 2047, 2031, 2025, 2059, 2050, 1984, 2053, 2111, 2174, 2127, 2144, 2125, 2107, 2084, 2054, 2092, 2111, 2078, 2059, 2113, 2096, 2063, 2076, 2055, 2076, 2089, 2099, 2081, 2073, 2073, 2094, 2072, 2055, 2041, 2060, 2047, 2103, 2000, 2037, 1993, 2061, 2085, 2041, 2040, 2057, 2060, 2035, 2004, 2029, 2018, 2009, 2041, 2042, 1958, 1989, 2007, 2030, 1983, 1980, 2060, 2017, 2043, 2052, 2004, 2052, 2035, 2022, 2040, 1970, 2008, 1984, 2021, 2026, 2024, 2009, 1966, 2024, 2024, 2012, 1958, 1986, 2039, 2028, 2039, 1989, 2065, 2014, 2039, 1985, 1983, 2030, 2028, 2033, 1997, 1951, 1992, 1996, 1990, 1997, 1975, 1970],
      "WindowCenter": [414.0, 414.0, 413.0, 413.0, 412.0, 411.0, 411.0, 410.0, 411.0, 411.0, 412.0, 413.0, 413.0, 414.0, 413.0, 414.0, 413.0, 412.0, 413.0, 413.0, 413.0, 414.0, 414.0, 414.0, 414.0, 414.0, 415.0, 414.0, 414.0, 415.0, 414.0, 414.0, 413.0, 413.0, 414.0, 416.0, 415.0, 415.0, 415.0, 414.0, 413.0, 412.0, 412.0, 412.0, 412.0, 413.0, 414.0, 413.0, 413.0, 413.0, 412.0, 412.0, 412.0, 411.0, 411.0, 412.0, 413.0, 414.0, 414.0, 413.0, 413.0, 413.0, 413.0, 414.0, 415.0, 415.0, 415.0, 415.0, 415.0, 414.0, 414.0, 413.0, 412.0, 413.0, 413.0, 414.0, 413.0, 412.0, 413.0, 411.0, 413.0, 414.0, 415.0, 416.0, 415.0, 414.0, 413.0, 412.0, 411.0, 412.0, 412.0, 412.0, 412.0, 412.0, 411.0, 411.0, 411.0, 411.0, 412.0, 412.0, 413.0, 413.0, 412.0, 412.0, 412.0, 412.0, 411.0, 411.0, 412.0, 413.0, 414.0, 414.0, 413.0, 412.0, 412.0, 411.0, 411.0, 412.0, 412.0, 412.0, 412.0, 412.0, 413.0, 412.0, 413.0, 414.0, 415.0, 414.0, 414.0, 414.0, 413.0, 412.0, 413.0, 411.0, 412.0, 412.0, 412.0, 412.0, 414.0, 414.0, 414.0, 413.0, 413.0, 412.0, 412.0, 411.0, 411.0, 410.0, 411.0, 411.0, 411.0, 412.0, 413.0, 414.0, 414.0, 413.0, 412.0, 413.0, 412.0, 413.0, 412.0, 412.0, 412.0, 413.0, 413.0, 413.0, 413.0, 413.0, 413.0, 412.0, 412.0, 413.0, 413.0, 413.0, 414.0, 415.0, 415.0, 414.0, 414.0, 413.0, 413.0, 413.0, 412.0, 411.0, 412.0, 412.0, 411.0, 411.0, 411.0, 411.0, 412.0, 411.0, 411.0, 411.0, 411.0, 413.0, 412.0, 413.0, 413.0, 412.0, 413.0, 412.0, 411.0, 411.0, 411.0, 411.0, 412.0, 411.0, 411.0, 410.0, 411.0, 410.0, 411.0, 412.0, 412.0, 413.0, 413.0, 413.0, 413.0, 414.0, 414.0, 414.0, 414.0, 413.0, 413.0, 413.0, 412.0, 415.0, 416.0, 415.0, 414.0, 413.0, 413.0, 412.0, 412.0, 413.0, 415.0, 417.0, 417.0, 418.0, 417.0, 417.0, 416.0, 415.0, 416.0, 416.0, 414.0, 414.0, 414.0, 414.0, 413.0, 413.0, 413.0, 414.0, 414.0, 414.0, 414.0, 414.0, 415.0, 415.0, 416.0, 416.0, 416.0, 416.0, 416.0, 416.0, 416.0, 416.0, 415.0, 415.0, 415.0, 414.0, 415.0, 415.0, 414.0, 414.0, 414.0, 415.0, 415.0, 415.0, 416.0, 414.0, 413.0, 413.0, 413.0, 413.0, 412.0, 413.0, 415.0, 416.0, 416.0, 416.0, 414.0, 414.0, 414.0, 414.0, 414.0, 414.0, 414.0, 414.0, 414.0, 414.0, 413.0, 412.0, 411.0, 412.0, 412.0, 413.0, 414.0, 415.0, 416.0, 415.0, 415.0, 413.0, 414.0, 413.0, 412.0, 411.0, 412.0, 413.0, 414.0, 415.0, 414.0, 413.0, 414.0, 413.0, 413.0, 413.0, 413.0, 414.0],
