{
    "AcquisitionMatrixPE": 84,
    "AcquisitionNumber": 1,
    "AcquisitionTime": "14:11:44.115000",
    "BaseResolution": 168,
    "CoilString": "C:E1_2",
    "ConversionSoftware": "dcm2niix",
    "ConversionSoftwareVersion": "v1.0.20191031",
    "DeviceSerialNumber": "18932",
    "DwellTime": 4.9e-06,
    "EchoNumber": 2,
    "EchoTime": 0.0051,
    "EchoTime1": 0.00408,
    "EchoTime2": 0.0051,
    "FlipAngle": 35,
    "ImageOrientationPatientDICOM": [
        1,
        -2.05103e-10,
        0,
        2.05103e-10,
        1,
        0
    ],
    "ImageType": [
        "ORIGINAL",
        "PRIMARY",
        "P",
        "ND",
        "PHASE"
    ],
    "ImagingFrequency": 297.228,
    "InPlanePhaseEncodingDirectionDICOM": "ROW",
    "InstitutionAddress": "Richmond_Street_North_1151_London_409EF2_Ontario_CA_N6A_5B7",
    "InstitutionName": "Robarts_Reserch_Institute",
    "InstitutionalDepartmentName": "Department",
    "MRAcquisitionType": "2D",
    "MagneticFieldStrength": 6.98,
    "Manufacturer": "Siemens",
    "ManufacturersModelName": "Investigational_Device_7T",
    "Modality": "MR",
    "MultibandAccelerationFactor": 3,
    "PartialFourier": 0.75,
    "PatientPosition": "HFS",
    "PercentPhaseFOV": 100,
    "PhaseEncodingDirection": "i",
    "PhaseEncodingSteps": 63,
    "PhaseResolution": 0.5,
    "PixelBandwidth": 607,
    "ProcedureStepDescription": "Diedrichsen_SeqRep4",
    "ProtocolName": "gre_field_mapping",
    "PulseSequenceDetails": "%SiemensSeq%_gre_field_mapping",
    "ReceiveCoilName": "CFMM_8Tx32Rx",
    "ReconMatrixPE": 168,
    "RepetitionTime": 0.475,
    "ScanOptions": "PFP",
    "ScanningSequence": "GR",
    "SequenceName": "fm2d2r",
    "SequenceVariant": "SP",
    "SeriesDescription": "gre_field_mapping",
    "SeriesNumber": 38,
    "ShimSetting": [
        -74,
        2049,
        366,
        308,
        96,
        -127,
        -259,
        -116
    ],
    "SliceThickness": 2.5,
    "SliceTiming": [
        0.23438,
        0,
        0.25,
        0.01562,
        0.25,
        0.01562,
        0.26562,
        0.03125,
        0.26562,
        0.03125,
        0.28125,
        0.04688,
        0.28125,
        0.04688,
        0.29688,
        0.0625,
        0.29688,
        0.0625,
        0.3125,
        0.0625,
        0.3125,
        0.07812,
        0.32812,
        0.07812,
        0.32812,
        0.09375,
        0.34375,
        0.09375,
        0.34375,
        0.10938,
        0.35938,
        0.10938,
        0.35938,
        0.125,
        0.375,
        0.125,
        0.375,
        0.14062,
        0.375,
        0.14062,
        0.39062,
        0.15625,
        0.39062,
        0.15625,
        0.40625,
        0.17188,
        0.40625,
        0.17188,
        0.42188,
        0.1875,
        0.42188,
        0.1875,
        0.4375,
        0.20312,
        0.4375,
        0.20312,
        0.45312,
        0.21875,
        0.45312,
        0.21875,
        0.46875,
        0.23438,
        0.46875,
        0.23438
    ],
    "SoftwareVersions": "syngo_MR_B17",
    "SpacingBetweenSlices": 2.5,
    "StationName": "MASTER",
    "TxRefAmp": 115.177,
    "dcmmeta_affine": [
        [
            -1.25,
            2.5637925116228644e-10,
            0.0,
            105.54801177978516
        ],
        [
            2.5637925116228644e-10,
            1.25,
            0.0,
            -107.50384521484375
        ],
        [
            0.0,
            0.0,
            2.5,
            -95.45266723632812
        ],
        [
            0.0,
            0.0,
            0.0,
            1.0
        ]
    ],
    "dcmmeta_reorient_transform": [
        [
            0.0,
            -1.0,
            0.0,
            167.0
        ],
        [
            1.0,
            0.0,
            0.0,
            0.0
        ],
        [
            0.0,
            0.0,
            -1.0,
            63.0
        ],
        [
            0.0,
            0.0,
            0.0,
            1.0
        ]
    ],
    "dcmmeta_shape": [
        168,
        168,
        64
    ],
    "dcmmeta_slice_dim": 2,
    "dcmmeta_version": 0.6,
    "global": {
        "const": {
            "AcquisitionMatrix": [
                0,
                168,
                84,
                0
            ],
            "AcquisitionNumber": 1,
            "AngioFlag": "N",
            "BitsAllocated": 16,
            "BitsStored": 12,
            "Columns": 168,
            "EchoNumbers": 2,
            "EchoTime": 5.1,
            "EchoTrainLength": 1,
            "FlipAngle": 35.0,
            "HighBit": 11,
            "ImageOrientationPatient": [
                1.0,
                -2.051034e-10,
                0.0,
                2.051034e-10,
                1.0,
                0.0
            ],
            "ImageType": [
                "ORIGINAL",
                "PRIMARY",
                "P",
                "ND"
            ],
            "ImagedNucleus": "1H",
            "ImagingFrequency": 297.228117,
            "InPlanePhaseEncodingDirection": "ROW",
            "MRAcquisitionType": "2D",
            "MagneticFieldStrength": 6.98,
            "Manufacturer": "SIEMENS",
            "ManufacturerModelName": "Investigational_Device_7T",
            "Modality": "MR",
            "NumberOfAverages": 1.0,
            "NumberOfPhaseEncodingSteps": 63,
            "PercentPhaseFieldOfView": 100.0,
            "PercentSampling": 50.0,
            "PerformedProcedureStepStartTime": "124150.406000",
            "PhotometricInterpretation": "MONOCHROME2",
            "PixelBandwidth": 607.0,
            "PixelRepresentation": 0,
            "PixelSpacing": [
                1.25,
                1.25
            ],
            "ProtocolName": "gre_field_mapping",
            "RepetitionTime": 475.0,
            "RescaleIntercept": -4096.0,
            "RescaleSlope": 2.0,
            "RescaleType": "US",
            "Rows": 168,
            "SAR": 0.0,
            "SamplesPerPixel": 1,
            "ScanOptions": "PFP",
            "ScanningSequence": "GR",
            "SequenceName": "fm2d2r",
            "SequenceVariant": "SP",
            "SeriesDescription": "gre_field_mapping",
            "SeriesNumber": 38,
            "SeriesTime": "141250.328000",
            "SliceThickness": 2.5,
            "SoftwareVersions": "syngo MR B17",
            "SpacingBetweenSlices": 2.5,
            "SpecificCharacterSet": "ISO_IR 100",
            "StudyID": "1",
            "StudyTime": "124150.343000",
            "TransmitCoilName": "CFMM_8Tx32Rx",
            "VariableFlipAngleFlag": "N",
            "WindowCenterWidthExplanation": "Algo1",
            "dBdt": 0.0
        },
        "slices": {
            "AcquisitionTime": [
                "141144.115000",
                "141143.877500",
                "141144.122500",
                "141143.885000",
                "141144.130000",
                "141143.892500",
                "141144.137500",
                "141143.900000",
                "141144.145000",
                "141143.907500",
                "141144.152500",
                "141143.915000",
                "141144.160000",
                "141143.922500",
                "141144.167500",
                "141143.930000",
                "141144.175000",
                "141143.937500",
                "141144.182500",
                "141143.945000",
                "141144.190000",
                "141143.952500",
                "141144.197500",
                "141143.960000",
                "141144.205000",
                "141143.967500",
                "141144.212500",
                "141143.975000",
                "141144.220000",
                "141143.982500",
                "141144.227500",
                "141143.990000",
                "141144.235000",
                "141143.997500",
                "141144.242500",
                "141144.005000",
                "141144.250000",
                "141144.012500",
                "141144.257500",
                "141144.020000",
                "141144.265000",
                "141144.027500",
                "141144.272500",
                "141144.035000",
                "141144.280000",
                "141144.042500",
                "141144.287500",
                "141144.050000",
                "141144.295000",
                "141144.057500",
                "141144.302500",
                "141144.065000",
                "141144.310000",
                "141144.072500",
                "141144.317500",
                "141144.080000",
                "141144.325000",
                "141144.087500",
                "141144.332500",
                "141144.095000",
                "141144.340000",
                "141144.102500",
                "141144.347500",
                "141144.110000"
            ],
            "ContentTime": [
                "141250.406000",
                "141250.343000",
                "141250.406000",
                "141250.343000",
                "141250.406000",
                "141250.343000",
                "141250.406000",
                "141250.343000",
                "141250.406000",
                "141250.343000",
                "141250.406000",
                "141250.343000",
                "141250.406000",
                "141250.343000",
                "141250.406000",
                "141250.343000",
                "141250.406000",
                "141250.359000",
                "141250.421000",
                "141250.359000",
                "141250.421000",
                "141250.359000",
                "141250.421000",
                "141250.359000",
                "141250.421000",
                "141250.359000",
                "141250.421000",
                "141250.359000",
                "141250.421000",
                "141250.359000",
                "141250.421000",
                "141250.359000",
                "141250.421000",
                "141250.375000",
                "141250.437000",
                "141250.375000",
                "141250.453000",
                "141250.375000",
                "141250.453000",
                "141250.375000",
                "141250.453000",
                "141250.375000",
                "141250.468000",
                "141250.375000",
                "141250.468000",
                "141250.375000",
                "141250.468000",
                "141250.375000",
                "141250.468000",
                "141250.375000",
                "141250.468000",
                "141250.390000",
                "141250.484000",
                "141250.390000",
                "141250.484000",
                "141250.390000",
                "141250.484000",
                "141250.390000",
                "141250.484000",
                "141250.390000",
                "141250.484000",
                "141250.390000",
                "141250.484000",
                "141250.390000"
            ],
            "CsaImage.ICE_Dims": [
                "X_2_1_1_1_1_1_33_1_1_1_1_168",
                "X_2_1_1_1_1_1_1_1_1_2_1_168",
                "X_2_1_1_1_1_1_34_1_1_3_1_168",
                "X_2_1_1_1_1_1_2_1_1_4_1_168",
                "X_2_1_1_1_1_1_35_1_1_5_1_168",
                "X_2_1_1_1_1_1_3_1_1_6_1_168",
                "X_2_1_1_1_1_1_36_1_1_7_1_168",
                "X_2_1_1_1_1_1_4_1_1_8_1_168",
                "X_2_1_1_1_1_1_37_1_1_9_1_168",
                "X_2_1_1_1_1_1_5_1_1_10_1_168",
                "X_2_1_1_1_1_1_38_1_1_11_1_168",
                "X_2_1_1_1_1_1_6_1_1_12_1_168",
                "X_2_1_1_1_1_1_39_1_1_13_1_168",
                "X_2_1_1_1_1_1_7_1_1_14_1_168",
                "X_2_1_1_1_1_1_40_1_1_15_1_168",
                "X_2_1_1_1_1_1_8_1_1_16_1_168",
                "X_2_1_1_1_1_1_41_1_1_17_1_168",
                "X_2_1_1_1_1_1_9_1_1_18_1_168",
                "X_2_1_1_1_1_1_42_1_1_19_1_168",
                "X_2_1_1_1_1_1_10_1_1_20_1_168",
                "X_2_1_1_1_1_1_43_1_1_21_1_168",
                "X_2_1_1_1_1_1_11_1_1_22_1_168",
                "X_2_1_1_1_1_1_44_1_1_23_1_168",
                "X_2_1_1_1_1_1_12_1_1_24_1_168",
                "X_2_1_1_1_1_1_45_1_1_25_1_168",
                "X_2_1_1_1_1_1_13_1_1_26_1_168",
                "X_2_1_1_1_1_1_46_1_1_27_1_168",
                "X_2_1_1_1_1_1_14_1_1_28_1_168",
                "X_2_1_1_1_1_1_47_1_1_29_1_168",
                "X_2_1_1_1_1_1_15_1_1_30_1_168",
                "X_2_1_1_1_1_1_48_1_1_31_1_168",
                "X_2_1_1_1_1_1_16_1_1_32_1_168",
                "X_2_1_1_1_1_1_49_1_1_33_1_168",
                "X_2_1_1_1_1_1_17_1_1_34_1_168",
                "X_2_1_1_1_1_1_50_1_1_35_1_168",
                "X_2_1_1_1_1_1_18_1_1_36_1_168",
                "X_2_1_1_1_1_1_51_1_1_37_1_168",
                "X_2_1_1_1_1_1_19_1_1_38_1_168",
                "X_2_1_1_1_1_1_52_1_1_39_1_168",
                "X_2_1_1_1_1_1_20_1_1_40_1_168",
                "X_2_1_1_1_1_1_53_1_1_41_1_168",
                "X_2_1_1_1_1_1_21_1_1_42_1_168",
                "X_2_1_1_1_1_1_54_1_1_43_1_168",
                "X_2_1_1_1_1_1_22_1_1_44_1_168",
                "X_2_1_1_1_1_1_55_1_1_45_1_168",
                "X_2_1_1_1_1_1_23_1_1_46_1_168",
                "X_2_1_1_1_1_1_56_1_1_47_1_168",
                "X_2_1_1_1_1_1_24_1_1_48_1_168",
                "X_2_1_1_1_1_1_57_1_1_49_1_168",
                "X_2_1_1_1_1_1_25_1_1_50_1_168",
                "X_2_1_1_1_1_1_58_1_1_51_1_168",
                "X_2_1_1_1_1_1_26_1_1_52_1_168",
                "X_2_1_1_1_1_1_59_1_1_53_1_168",
                "X_2_1_1_1_1_1_27_1_1_54_1_168",
                "X_2_1_1_1_1_1_60_1_1_55_1_168",
                "X_2_1_1_1_1_1_28_1_1_56_1_168",
                "X_2_1_1_1_1_1_61_1_1_57_1_168",
                "X_2_1_1_1_1_1_29_1_1_58_1_168",
                "X_2_1_1_1_1_1_62_1_1_59_1_168",
                "X_2_1_1_1_1_1_30_1_1_60_1_168",
                "X_2_1_1_1_1_1_63_1_1_61_1_168",
                "X_2_1_1_1_1_1_31_1_1_62_1_168",
                "X_2_1_1_1_1_1_64_1_1_63_1_168",
                "X_2_1_1_1_1_1_32_1_1_64_1_168"
            ],
            "CsaImage.ProtocolSliceNumber": [
                0,
                1,
                2,
                3,
                4,
                5,
                6,
                7,
                8,
                9,
                10,
                11,
                12,
                13,
                14,
                15,
                16,
                17,
                18,
                19,
                20,
                21,
                22,
                23,
                24,
                25,
                26,
                27,
                28,
                29,
                30,
                31,
                32,
                33,
                34,
                35,
                36,
                37,
                38,
                39,
                40,
                41,
                42,
                43,
                44,
                45,
                46,
                47,
                48,
                49,
                50,
                51,
                52,
                53,
                54,
                55,
                56,
                57,
                58,
                59,
                60,
                61,
                62,
                63
            ],
            "CsaImage.SliceMeasurementDuration": [
                59137.5,
                59137.5,
                59137.5,
                59137.5,
                59137.5,
                59137.5,
                59137.5,
                59137.5,
                59137.5,
                59137.5,
                59137.5,
                59137.5,
                59137.5,
                59137.5,
                59137.5,
                59137.5,
                59137.5,
                59137.5,
                59137.5,
                59137.5,
                59137.5,
                59137.5,
                59137.5,
                59137.5,
                59137.5,
                59137.5,
                59137.5,
                59135.0,
                59137.5,
                59135.0,
                59137.5,
                59135.0,
                59137.5,
                59135.0,
                59137.5,
                59135.0,
                59137.5,
                59135.0,
                59137.5,
                59135.0,
                59137.5,
                59135.0,
                59137.5,
                59135.0,
                59137.5,
                59135.0,
                59137.5,
                59135.0,
                59137.5,
                59135.0,
                59137.5,
                59135.0,
                59137.5,
                59135.0,
                59137.5,
                59135.0,
                59137.5,
                59135.0,
                59137.5,
                59135.0,
                59137.5,
                59135.0,
                59135.0,
                59135.0
            ],
            "CsaImage.SlicePosition_PCS": [
                [
                    -105.54801043,
                    -101.24615762,
                    -95.45266724
                ],
                [
                    -105.54801043,
                    -101.24615762,
                    -92.95266724
                ],
                [
                    -105.54801043,
                    -101.24615762,
                    -90.45266724
                ],
                [
                    -105.54801043,
                    -101.24615762,
                    -87.95266724
                ],
                [
                    -105.54801043,
                    -101.24615762,
                    -85.45266724
                ],
                [
                    -105.54801043,
                    -101.24615762,
                    -82.95266724
                ],
                [
                    -105.54801043,
                    -101.24615762,
                    -80.45266724
                ],
                [
                    -105.54801043,
                    -101.24615762,
                    -77.95266724
                ],
                [
                    -105.54801043,
                    -101.24615762,
                    -75.45266724
                ],
                [
                    -105.54801043,
                    -101.24615762,
                    -72.95266724
                ],
                [
                    -105.54801043,
                    -101.24615762,
                    -70.45266724
                ],
                [
                    -105.54801043,
                    -101.24615762,
                    -67.95266724
                ],
                [
                    -105.54801043,
                    -101.24615762,
                    -65.45266724
                ],
                [
                    -105.54801043,
                    -101.24615762,
                    -62.95266724
                ],
                [
                    -105.54801043,
                    -101.24615762,
                    -60.45266724
                ],
                [
                    -105.54801043,
                    -101.24615762,
                    -57.95266724
                ],
                [
                    -105.54801043,
                    -101.24615762,
                    -55.45266724
                ],
                [
                    -105.54801043,
                    -101.24615762,
                    -52.95266724
                ],
                [
                    -105.54801043,
                    -101.24615762,
                    -50.45266724
                ],
                [
                    -105.54801043,
                    -101.24615762,
                    -47.95266724
                ],
                [
                    -105.54801043,
                    -101.24615762,
                    -45.45266724
                ],
                [
                    -105.54801043,
                    -101.24615762,
                    -42.95266724
                ],
                [
                    -105.54801043,
                    -101.24615762,
                    -40.45266724
                ],
                [
                    -105.54801043,
                    -101.24615762,
                    -37.95266724
                ],
                [
                    -105.54801043,
                    -101.24615762,
                    -35.45266724
                ],
                [
                    -105.54801043,
                    -101.24615762,
                    -32.95266724
                ],
                [
                    -105.54801043,
                    -101.24615762,
                    -30.45266914
                ],
                [
                    -105.54801043,
                    -101.24615762,
                    -27.95266914
                ],
                [
                    -105.54801043,
                    -101.24615762,
                    -25.45266914
                ],
                [
                    -105.54801043,
                    -101.24615762,
                    -22.95266914
                ],
                [
                    -105.54801043,
                    -101.24615762,
                    -20.45266914
                ],
                [
                    -105.54801043,
                    -101.24615762,
                    -17.95266914
                ],
                [
                    -105.54801043,
                    -101.24615762,
                    -15.45266819
                ],
                [
                    -105.54801043,
                    -101.24615762,
                    -12.95266819
                ],
                [
                    -105.54801043,
                    -101.24615762,
                    -10.45266819
                ],
                [
                    -105.54801043,
                    -101.24615762,
                    -7.95266867
                ],
                [
                    -105.54801043,
                    -101.24615762,
                    -5.45266867
                ],
                [
                    -105.54801043,
                    -101.24615762,
                    -2.95266843
                ],
                [
                    -105.54801043,
                    -101.24615762,
                    -0.45266846
                ],
                [
                    -105.54801043,
                    -101.24615762,
                    2.04733157
                ],
                [
                    -105.54801043,
                    -101.24615762,
                    4.54733133
                ],
                [
                    -105.54801043,
                    -101.24615762,
                    7.04733133
                ],
                [
                    -105.54801043,
                    -101.24615762,
                    9.54733181
                ],
                [
                    -105.54801043,
                    -101.24615762,
                    12.04733181
                ],
                [
                    -105.54801043,
                    -101.24615762,
                    14.54733181
                ],
                [
                    -105.54801043,
                    -101.24615762,
                    17.04733086
                ],
                [
                    -105.54801043,
                    -101.24615762,
                    19.54733086
                ],
                [
                    -105.54801043,
                    -101.24615762,
                    22.04733086
                ],
                [
                    -105.54801043,
                    -101.24615762,
                    24.54733086
                ],
                [
                    -105.54801043,
                    -101.24615762,
                    27.04733086
                ],
                [
                    -105.54801043,
                    -101.24615762,
                    29.54733086
                ],
                [
                    -105.54801043,
                    -101.24615762,
                    32.04733276
                ],
                [
                    -105.54801043,
                    -101.24615762,
                    34.54733276
                ],
                [
                    -105.54801043,
                    -101.24615762,
                    37.04733276
                ],
                [
                    -105.54801043,
                    -101.24615762,
                    39.54733276
                ],
                [
                    -105.54801043,
                    -101.24615762,
                    42.04733276
                ],
                [
                    -105.54801043,
                    -101.24615762,
                    44.54733276
                ],
                [
                    -105.54801043,
                    -101.24615762,
                    47.04733276
                ],
                [
                    -105.54801043,
                    -101.24615762,
                    49.54733276
                ],
                [
                    -105.54801043,
                    -101.24615762,
                    52.04733276
                ],
                [
                    -105.54801043,
                    -101.24615762,
                    54.54733276
                ],
                [
                    -105.54801043,
                    -101.24615762,
                    57.04733276
                ],
                [
                    -105.54801043,
                    -101.24615762,
                    59.54733276
                ],
                [
                    -105.54801043,
                    -101.24615762,
                    62.04733276
                ]
            ],
            "CsaImage.TimeAfterStart": [
                0.7175,
                0.4775,
                0.725,
                0.485,
                0.7325,
                0.4925,
                0.74,
                0.5,
                0.7475,
                0.5075,
                0.7525,
                0.515,
                0.76,
                0.5225,
                0.7675,
                0.53,
                0.775,
                0.5375,
                0.7825,
                0.545,
                0.79,
                0.5525,
                0.7975,
                0.56,
                0.805,
                0.5675,
                0.8125,
                0.575,
                0.82,
                0.5825,
                0.8275,
                0.59,
                0.835,
                0.5975,
                0.8425,
                0.605,
                0.85,
                0.6125,
                0.8575,
                0.62,
                0.865,
                0.6275,
                0.8725,
                0.635,
                0.88,
                0.6425,
                0.8875,
                0.65,
                0.895,
                0.6575,
                0.9025,
                0.665,
                0.91,
                0.6725,
                0.9175,
                0.68,
                0.925,
                0.6875,
                0.9325,
                0.695,
                0.94,
                0.7025,
                0.9475,
                0.71
            ],
            "ImagePositionPatient": [
                [
                    -105.54801043041,
                    -101.24615762464,
                    -95.452667236328
                ],
                [
                    -105.54801043041,
                    -101.24615762464,
                    -92.952667236328
                ],
                [
                    -105.54801043041,
                    -101.24615762464,
                    -90.452667236328
                ],
                [
                    -105.54801043041,
                    -101.24615762464,
                    -87.952667236328
                ],
                [
                    -105.54801043041,
                    -101.24615762464,
                    -85.452667236328
                ],
                [
                    -105.54801043041,
                    -101.24615762464,
                    -82.952667236328
                ],
                [
                    -105.54801043041,
                    -101.24615762464,
                    -80.452667236328
                ],
                [
                    -105.54801043041,
                    -101.24615762464,
                    -77.952667236328
                ],
                [
                    -105.54801043041,
                    -101.24615762464,
                    -75.452667236328
                ],
                [
                    -105.54801043041,
                    -101.24615762464,
                    -72.952667236328
                ],
                [
                    -105.54801043041,
                    -101.24615762464,
                    -70.452667236328
                ],
                [
                    -105.54801043041,
                    -101.24615762464,
                    -67.952667236328
                ],
                [
                    -105.54801043041,
                    -101.24615762464,
                    -65.452667236328
                ],
                [
                    -105.54801043041,
                    -101.24615762464,
                    -62.952667236328
                ],
                [
                    -105.54801043041,
                    -101.24615762464,
