{
  "AcquisitionMatrixPE": 104,
  "AcquisitionNumber": 1,
  "AcquisitionTime": "10:09:11.937500",
  "BandwidthPerPixelPhaseEncode": 43.054,
  "BaseResolution": 104,
  "CoilString": "C:E1_2",
  "ConversionSoftware": "dcm2niix",
  "ConversionSoftwareVersion": "v1.0.20191031",
  "DerivedVendorReportedEchoSpacing": 0.000669999,
  "DeviceSerialNumber": "18932",
  "DwellTime": 2.8e-06,
  "EchoTime": 0.02,
  "EffectiveEchoSpacing": 0.000223333,
  "FlipAngle": 30,
  "ImageComments": "Unaliased_MB2_PE2",
  "ImageOrientationPatientDICOM": [1, 0, 0, 0, 0.943223, -0.332161],
  "ImageType": [
    "ORIGINAL",
    "PRIMARY",
    "M",
    "MB",
    "ND",
    "MOSAIC"
],
  "ImagingFrequency": 297.229,
  "InPlanePhaseEncodingDirectionDICOM": "COL",
  "InstitutionAddress": "Richmond_Street_North_1151_London_409EF2_Ontario_CA_N6A_5B7",
  "InstitutionName": "Robarts_Reserch_Institute",
  "InstitutionalDepartmentName": "Department",
  "MRAcquisitionType": "2D",
  "MagneticFieldStrength": 6.98,
  "Manufacturer": "Siemens",
  "ManufacturersModelName": "Investigational_Device_7T",
  "Modality": "MR",
  "MultibandAccelerationFactor": 2,
  "ParallelReductionFactorInPlane": 3,
  "PartialFourier": 0.875,
  "PatientPosition": "HFS",
  "PercentPhaseFOV": 100,
  "PhaseEncodingDirection": "j-",
  "PhaseEncodingSteps": 91,
  "PhaseResolution": 1,
  "PixelBandwidth": 1717,
  "ProcedureStepDescription": "Diedrichsen_SeqRep4",
  "ProtocolName": "mbep2d_bold_mb2_p3_AP_2iso",
  "PulseSequenceDetails": "%CustomerSeq%_cmrr_mbep2d_bold",
  "ReceiveCoilName": "CFMM_8Tx32Rx",
  "ReconMatrixPE": 104,
  "RefLinesPE": 36,
  "RepetitionTime": 1,
  "ScanOptions": "PFP_FS",
  "ScanningSequence": "EP",
  "SequenceName": "epfid2d1_104",
  "SequenceVariant": "SK_SS",
  "SeriesDescription": "mbep2d_bold_mb2_p3_AP_2iso",
  "SeriesNumber": 32,
  "ShimSetting": [-5, 2173, 67, 1641, -25, 214, 198, -161],
  "SliceThickness": 2,
  "SliceTiming": [0, 0.2275, 0.4575, 0.685, 0.9125, 0.1375, 0.365, 0.5925, 0.8225, 0.045, 0.275, 0.5025, 0.73, 0.9575, 0.1825, 0.41, 0.64, 0.8675, 0.0925, 0.32, 0.5475, 0.775, 0, 0.2275, 0.4575, 0.685, 0.9125, 0.1375, 0.365, 0.5925, 0.8225, 0.045, 0.275, 0.5025, 0.73, 0.9575, 0.1825, 0.41, 0.64, 0.8675, 0.0925, 0.32, 0.5475, 0.775],
  "SoftwareVersions": "syngo_MR_B17",
  "SpacingBetweenSlices": 2,
  "StationName": "MASTER",
  "TaskName": "dsp",
  "TotalReadoutTime": 0.0230033,
  "TxRefAmp": 120,
  "dcmmeta_affine": [
    [-2.0, 0.0, 0.0, 108.35835266113281],
    [0.0, 1.8864452838897705, -0.6643223166465759, -99.36136627197266],
    [0.0, 0.6643223166465759, 1.8864452838897705, -51.97029495239258],
    [0.0, 0.0, 0.0, 1.0]
],
  "dcmmeta_reorient_transform": [
    [0.0, -1.0, 0.0, 103.0],
    [1.0, 0.0, 0.0, 0.0],
    [0.0, 0.0, 1.0, 0.0],
    [0.0, 0.0, 0.0, 1.0]
],
  "dcmmeta_shape": [104, 104, 44, 330],
  "dcmmeta_slice_dim": 2,
  "dcmmeta_version": 0.6,
  "global": {
    "const": {
      "AcquisitionMatrix": [104, 0, 0, 104],
      "AngioFlag": "N",
      "BitsAllocated": 16,
      "BitsStored": 12,
      "Columns": 728,
      "EchoNumbers": 1,
      "EchoTime": 20.0,
      "EchoTrainLength": 1,
      "FlipAngle": 30.0,
      "HighBit": 11,
      "ImageOrientationPatient": [1.0, 0.0, 0.0, 0.0, 0.94322265279987, -0.3321611465015],
      "ImagePositionPatient": [-732.35835361481, -683.51343778257, 223.72345564428],
      "ImageType": [
        "ORIGINAL",
        "PRIMARY",
        "M",
        "MB",
        "ND",
        "MOSAIC"
],
      "ImagedNucleus": "1H",
      "ImagingFrequency": 297.2288,
      "InPlanePhaseEncodingDirection": "COL",
      "MRAcquisitionType": "2D",
      "MagneticFieldStrength": 6.98,
      "Manufacturer": "SIEMENS",
      "ManufacturerModelName": "Investigational_Device_7T",
      "Modality": "MR",
      "NumberOfAverages": 1.0,
      "NumberOfPhaseEncodingSteps": 91,
      "PercentPhaseFieldOfView": 100.0,
      "PercentSampling": 100.0,
      "PerformedProcedureStepStartTime": "085045.000000",
      "PhotometricInterpretation": "MONOCHROME2",
      "PixelBandwidth": 1717.0,
      "PixelRepresentation": 0,
      "PixelSpacing": [2.0, 2.0],
      "ProtocolName": "mbep2d_bold_mb2_p3_AP 2iso",
      "RepetitionTime": 1000.0,
      "Rows": 728,
      "SAR": 0.0,
      "SamplesPerPixel": 1,
      "ScanOptions": [
        "PFP",
        "FS"
],
      "ScanningSequence": "EP",
      "SequenceName": "epfid2d1_104",
      "SequenceVariant": [
        "SK",
        "SS"
],
      "SeriesDescription": "mbep2d_bold_mb2_p3_AP 2iso",
      "SeriesNumber": 32,
      "SeriesTime": "100920.828000",
      "SliceLocation": -16.015575816667,
      "SliceThickness": 2.0,
      "SmallestImagePixelValue": 0,
      "SoftwareVersions": "syngo MR B17",
      "SpacingBetweenSlices": 2.0000000229338,
      "SpecificCharacterSet": "ISO_IR 100",
      "StudyID": "1",
      "StudyTime": "085044.875000",
      "TransmitCoilName": "CFMM_8Tx32Rx",
      "VariableFlipAngleFlag": "N",
      "WindowCenterWidthExplanation": "Algo1",
      "dBdt": 0.0},
    "slices": {}
  },
  "time": {
    "samples": {
      "AcquisitionNumber": [1, 2, 3, 4, 5, 6, 7, 8, 9, 10, 11, 12, 13, 14, 15, 16, 17, 18, 19, 20, 21, 22, 23, 24, 25, 26, 27, 28, 29, 30, 31, 32, 33, 34, 35, 36, 37, 38, 39, 40, 41, 42, 43, 44, 45, 46, 47, 48, 49, 50, 51, 52, 53, 54, 55, 56, 57, 58, 59, 60, 61, 62, 63, 64, 65, 66, 67, 68, 69, 70, 71, 72, 73, 74, 75, 76, 77, 78, 79, 80, 81, 82, 83, 84, 85, 86, 87, 88, 89, 90, 91, 92, 93, 94, 95, 96, 97, 98, 99, 100, 101, 102, 103, 104, 105, 106, 107, 108, 109, 110, 111, 112, 113, 114, 115, 116, 117, 118, 119, 120, 121, 122, 123, 124, 125, 126, 127, 128, 129, 130, 131, 132, 133, 134, 135, 136, 137, 138, 139, 140, 141, 142, 143, 144, 145, 146, 147, 148, 149, 150, 151, 152, 153, 154, 155, 156, 157, 158, 159, 160, 161, 162, 163, 164, 165, 166, 167, 168, 169, 170, 171, 172, 173, 174, 175, 176, 177, 178, 179, 180, 181, 182, 183, 184, 185, 186, 187, 188, 189, 190, 191, 192, 193, 194, 195, 196, 197, 198, 199, 200, 201, 202, 203, 204, 205, 206, 207, 208, 209, 210, 211, 212, 213, 214, 215, 216, 217, 218, 219, 220, 221, 222, 223, 224, 225, 226, 227, 228, 229, 230, 231, 232, 233, 234, 235, 236, 237, 238, 239, 240, 241, 242, 243, 244, 245, 246, 247, 248, 249, 250, 251, 252, 253, 254, 255, 256, 257, 258, 259, 260, 261, 262, 263, 264, 265, 266, 267, 268, 269, 270, 271, 272, 273, 274, 275, 276, 277, 278, 279, 280, 281, 282, 283, 284, 285, 286, 287, 288, 289, 290, 291, 292, 293, 294, 295, 296, 297, 298, 299, 300, 301, 302, 303, 304, 305, 306, 307, 308, 309, 310, 311, 312, 313, 314, 315, 316, 317, 318, 319, 320, 321, 322, 323, 324, 325, 326, 327, 328, 329, 330],
      "AcquisitionTime": ["100911.937500", "100912.942500", "100913.945000", "100914.950000", "100915.955000", "100916.957500", "100917.962500", "100918.965000", "100919.970000", "100920.975000", "100921.977500", "100922.982500", "100923.985000", "100924.990000", "100925.995000", "100926.997500", "100928.002500", "100929.005000", "100930.010000", "100931.015000", "100932.017500", "100933.022500", "100934.025000", "100935.030000", "100936.035000", "100937.037500", "100938.042500", "100939.047500", "100940.050000", "100941.055000", "100942.057500", "100943.062500", "100944.067500", "100945.070000", "100946.075000", "100947.077500", "100948.082500", "100949.087500", "100950.090000", "100951.095000", "100952.097500", "100953.102500", "100954.107500", "100955.110000", "100956.115000", "100957.117500", "100958.122500", "100959.127500", "101000.130000", "101001.135000", "101002.137500", "101003.142500", "101004.147500", "101005.150000", "101006.155000", "101007.157500", "101008.162500", "101009.167500", "101010.170000", "101011.175000", "101012.180000", "101013.182500", "101014.187500", "101015.190000", "101016.195000", "101017.200000", "101018.202500", "101019.207500", "101020.210000", "101021.215000", "101022.220000", "101023.222500", "101024.227500", "101025.230000", "101026.235000", "101027.240000", "101028.242500", "101029.247500", "101030.250000", "101031.255000", "101032.260000", "101033.262500", "101034.267500", "101035.270000", "101036.275000", "101037.280000", "101038.282500", "101039.287500", "101040.292500", "101041.295000", "101042.300000", "101043.302500", "101044.307500", "101045.312500", "101046.315000", "101047.320000", "101048.322500", "101049.327500", "101050.332500", "101051.335000", "101052.340000", "101053.342500", "101054.347500", "101055.352500", "101056.355000", "101057.360000", "101058.362500", "101059.367500", "101100.372500", "101101.375000", "101102.380000", "101103.382500", "101104.387500", "101105.392500", "101106.395000", "101107.400000", "101108.402500", "101109.407500", "101110.412500", "101111.415000", "101112.420000", "101113.425000", "101114.427500", "101115.432500", "101116.435000", "101117.440000", "101118.445000", "101119.447500", "101120.452500", "101121.455000", "101122.460000", "101123.465000", "101124.467500", "101125.472500", "101126.475000", "101127.480000", "101128.485000", "101129.487500", "101130.492500", "101131.495000", "101132.500000", "101133.505000", "101134.507500", "101135.512500", "101136.515000", "101137.520000", "101138.525000", "101139.527500", "101140.532500", "101141.537500", "101142.540000", "101143.545000", "101144.547500", "101145.552500", "101146.557500", "101147.560000", "101148.565000", "101149.567500", "101150.572500", "101151.577500", "101152.580000", "101153.585000", "101154.587500", "101155.592500", "101156.597500", "101157.600000", "101158.605000", "101159.607500", "101200.612500", "101201.617500", "101202.620000", "101203.625000", "101204.627500", "101205.632500", "101206.637500", "101207.640000", "101208.645000", "101209.647500", "101210.652500", "101211.657500", "101212.660000", "101213.665000", "101214.670000", "101215.672500", "101216.677500", "101217.680000", "101218.685000", "101219.690000", "101220.692500", "101221.697500", "101222.700000", "101223.705000", "101224.710000", "101225.712500", "101226.717500", "101227.720000", "101228.725000", "101229.730000", "101230.732500", "101231.737500", "101232.740000", "101233.745000", "101234.750000", "101235.752500", "101236.757500", "101237.760000", "101238.765000", "101239.770000", "101240.772500", "101241.777500", "101242.780000", "101243.785000", "101244.790000", "101245.792500", "101246.797500", "101247.802500", "101248.805000", "101249.810000", "101250.812500", "101251.817500", "101252.822500", "101253.825000", "101254.830000", "101255.832500", "101256.837500", "101257.842500", "101258.845000", "101259.850000", "101300.852500", "101301.857500", "101302.862500", "101303.865000", "101304.870000", "101305.872500", "101306.877500", "101307.882500", "101308.885000", "101309.890000", "101310.892500", "101311.897500", "101312.902500", "101313.905000", "101314.910000", "101315.915000", "101316.917500", "101317.922500", "101318.925000", "101319.930000", "101320.935000", "101321.937500", "101322.942500", "101323.945000", "101324.950000", "101325.955000", "101326.957500", "101327.962500", "101328.965000", "101329.970000", "101330.975000", "101331.977500", "101332.982500", "101333.985000", "101334.990000", "101335.995000", "101336.997500", "101338.002500", "101339.005000", "101340.010000", "101341.015000", "101342.017500", "101343.022500", "101344.025000", "101345.030000", "101346.035000", "101347.037500", "101348.042500", "101349.047500", "101350.050000", "101351.055000", "101352.057500", "101353.062500", "101354.067500", "101355.070000", "101356.075000", "101357.077500", "101358.082500", "101359.087500", "101400.090000", "101401.095000", "101402.097500", "101403.102500", "101404.107500", "101405.110000", "101406.115000", "101407.117500", "101408.122500", "101409.127500", "101410.130000", "101411.135000", "101412.137500", "101413.142500", "101414.147500", "101415.150000", "101416.155000", "101417.157500", "101418.162500", "101419.167500", "101420.170000", "101421.175000", "101422.180000", "101423.182500", "101424.187500", "101425.190000", "101426.195000", "101427.200000", "101428.202500", "101429.207500", "101430.210000", "101431.215000", "101432.220000", "101433.222500", "101434.227500", "101435.230000", "101436.235000", "101437.240000", "101438.242500", "101439.247500", "101440.250000", "101441.255000", "101442.260000"],
      "ContentTime": ["100920.843000", "100920.843000", "100920.843000", "100920.843000", "100920.843000", "100920.843000", "100920.843000", "100920.859000", "100940.796000", "100940.796000", "100940.796000", "100940.796000", "100940.812000", "100940.812000", "100940.812000", "100940.812000", "100940.812000", "100940.812000", "100940.812000", "100940.828000", "100940.828000", "100940.828000", "100940.828000", "100940.828000", "100940.828000", "100940.828000", "100940.828000", "100940.843000", "101000.796000", "101000.796000", "101000.796000", "101000.796000", "101000.796000", "101000.812000", "101000.812000", "101000.812000", "101000.812000", "101000.828000", "101000.828000", "101000.828000", "101000.828000", "101000.828000", "101000.828000", "101000.828000", "101000.843000", "101000.843000", "101000.843000", "101000.843000", "101020.796000", "101020.796000", "101020.796000", "101020.812000", "101020.812000", "101020.812000", "101020.812000", "101020.812000", "101020.828000", "101020.828000", "101020.828000", "101020.828000", "101020.828000", "101020.828000", "101020.843000", "101020.843000", "101020.843000", "101020.843000", "101020.843000", "101020.843000", "101040.796000", "101040.796000", "101040.796000", "101040.796000", "101040.812000", "101040.812000", "101040.812000", "101040.812000", "101040.812000", "101040.812000", "101040.812000", "101040.812000", "101040.828000", "101040.828000", "101040.828000", "101040.828000", "101040.828000", "101040.828000", "101040.828000", "101040.843000", "101100.796000", "101100.796000", "101100.796000", "101100.796000", "101100.796000", "101100.796000", "101100.812000", "101100.812000", "101100.812000", "101100.812000", "101100.812000", "101100.812000", "101100.812000", "101100.812000", "101100.828000", "101100.828000", "101100.828000", "101100.828000", "101100.828000", "101100.828000", "101140.796000", "101140.796000", "101140.796000", "101140.796000", "101140.796000", "101140.796000", "101140.812000", "101140.812000", "101140.812000", "101140.812000", "101140.812000", "101140.812000", "101140.812000", "101140.812000", "101140.828000", "101140.828000", "101140.828000", "101140.828000", "101140.828000", "101140.843000", "101140.843000", "101140.843000", "101140.859000", "101140.859000", "101140.859000", "101140.859000", "101140.859000", "101140.890000", "101140.890000", "101140.890000", "101140.906000", "101140.906000", "101140.906000", "101140.906000", "101140.906000", "101140.906000", "101140.906000", "101140.921000", "101140.921000", "101140.921000", "101200.796000", "101200.796000", "101200.796000", "101200.796000", "101200.796000", "101200.796000", "101200.812000", "101200.812000", "101200.812000", "101200.812000", "101200.812000", "101200.812000", "101200.828000", "101200.828000", "101200.828000", "101200.828000", "101200.828000", "101200.828000", "101200.828000", "101200.828000", "101220.796000", "101220.796000", "101220.796000", "101220.796000", "101220.796000", "101220.796000", "101220.812000", "101220.812000", "101220.812000", "101220.812000", "101220.828000", "101220.828000", "101220.828000", "101220.828000", "101220.843000", "101220.843000", "101220.843000", "101220.859000", "101220.859000", "101220.859000", "101240.796000", "101240.796000", "101240.796000", "101240.796000", "101240.796000", "101240.796000", "101240.812000", "101240.812000", "101240.812000", "101240.812000", "101240.812000", "101240.828000", "101240.828000", "101240.828000", "101240.828000", "101240.828000", "101240.828000", "101240.828000", "101240.828000", "101240.843000", "101300.796000", "101300.796000", "101300.796000", "101300.796000", "101300.796000", "101300.796000", "101300.796000", "101300.812000", "101300.812000", "101300.812000", "101300.812000", "101300.812000", "101300.812000", "101300.812000", "101300.828000", "101300.828000", "101300.828000", "101300.828000", "101300.828000", "101300.843000", "101320.796000", "101320.796000", "101320.796000", "101320.796000", "101320.796000", "101320.796000", "101320.812000", "101320.812000", "101320.812000", "101320.828000", "101320.828000", "101320.828000", "101320.828000", "101320.828000", "101320.828000", "101320.843000", "101320.843000", "101320.843000", "101320.843000", "101320.843000", "101340.796000", "101340.796000", "101340.796000", "101340.796000", "101340.796000", "101340.796000", "101340.812000", "101340.812000", "101340.812000", "101340.828000", "101340.828000", "101340.828000", "101340.828000", "101340.828000", "101340.828000", "101340.828000", "101340.828000", "101340.843000", "101340.843000", "101340.843000", "101400.796000", "101400.796000", "101400.796000", "101400.796000", "101400.796000", "101400.796000", "101400.812000", "101400.812000", "101400.812000", "101400.828000", "101400.828000", "101400.828000", "101400.828000", "101400.828000", "101400.828000", "101400.828000", "101400.843000", "101400.843000", "101400.843000", "101400.843000", "101420.796000", "101420.796000", "101420.796000", "101420.796000", "101420.796000", "101420.796000", "101420.812000", "101420.812000", "101420.812000", "101420.812000", "101420.812000", "101420.812000", "101420.812000", "101420.812000", "101420.828000", "101420.828000", "101420.828000", "101420.828000", "101420.828000", "101420.828000", "101440.796000", "101440.796000", "101440.796000", "101440.796000", "101440.796000", "101440.796000", "101440.812000", "101440.812000", "101440.812000", "101440.812000", "101440.812000", "101440.812000", "101440.812000", "101440.812000", "101440.828000", "101440.828000", "101440.828000", "101440.828000", "101440.828000", "101440.828000", "101447.500000", "101447.515000"],
      "InstanceCreationTime": ["100920.843000", "100920.843000", "100920.843000", "100920.843000", "100920.843000", "100920.843000", "100920.843000", "100920.859000", "100940.796000", "100940.796000", "100940.796000", "100940.796000", "100940.812000", "100940.812000", "100940.812000", "100940.812000", "100940.812000", "100940.812000", "100940.812000", "100940.828000", "100940.828000", "100940.828000", "100940.828000", "100940.828000", "100940.828000", "100940.828000", "100940.828000", "100940.843000", "101000.796000", "101000.796000", "101000.796000", "101000.796000", "101000.796000", "101000.812000", "101000.812000", "101000.812000", "101000.812000", "101000.828000", "101000.828000", "101000.828000", "101000.828000", "101000.828000", "101000.828000", "101000.828000", "101000.843000", "101000.843000", "101000.843000", "101000.843000", "101020.796000", "101020.796000", "101020.796000", "101020.812000", "101020.812000", "101020.812000", "101020.812000", "101020.812000", "101020.828000", "101020.828000", "101020.828000", "101020.828000", "101020.828000", "101020.828000", "101020.843000", "101020.843000", "101020.843000", "101020.843000", "101020.843000", "101020.843000", "101040.796000", "101040.796000", "101040.796000", "101040.796000", "101040.812000", "101040.812000", "101040.812000", "101040.812000", "101040.812000", "101040.812000", "101040.812000", "101040.812000", "101040.828000", "101040.828000", "101040.828000", "101040.828000", "101040.828000", "101040.828000", "101040.828000", "101040.843000", "101100.796000", "101100.796000", "101100.796000", "101100.796000", "101100.796000", "101100.796000", "101100.812000", "101100.812000", "101100.812000", "101100.812000", "101100.812000", "101100.812000", "101100.812000", "101100.812000", "101100.828000", "101100.828000", "101100.828000", "101100.828000", "101100.828000", "101100.828000", "101140.796000", "101140.796000", "101140.796000", "101140.796000", "101140.796000", "101140.796000", "101140.812000", "101140.812000", "101140.812000", "101140.812000", "101140.812000", "101140.812000", "101140.812000", "101140.812000", "101140.828000", "101140.828000", "101140.828000", "101140.828000", "101140.828000", "101140.843000", "101140.843000", "101140.843000", "101140.859000", "101140.859000", "101140.859000", "101140.859000", "101140.859000", "101140.890000", "101140.890000", "101140.890000", "101140.906000", "101140.906000", "101140.906000", "101140.906000", "101140.906000", "101140.906000", "101140.906000", "101140.921000", "101140.921000", "101140.921000", "101200.796000", "101200.796000", "101200.796000", "101200.796000", "101200.796000", "101200.796000", "101200.812000", "101200.812000", "101200.812000", "101200.812000", "101200.812000", "101200.812000", "101200.828000", "101200.828000", "101200.828000", "101200.828000", "101200.828000", "101200.828000", "101200.828000", "101200.828000", "101220.796000", "101220.796000", "101220.796000", "101220.796000", "101220.796000", "101220.796000", "101220.812000", "101220.812000", "101220.812000", "101220.812000", "101220.828000", "101220.828000", "101220.828000", "101220.828000", "101220.843000", "101220.843000", "101220.843000", "101220.859000", "101220.859000", "101220.859000", "101240.796000", "101240.796000", "101240.796000", "101240.796000", "101240.796000", "101240.796000", "101240.812000", "101240.812000", "101240.812000", "101240.812000", "101240.812000", "101240.828000", "101240.828000", "101240.828000", "101240.828000", "101240.828000", "101240.828000", "101240.828000", "101240.828000", "101240.843000", "101300.796000", "101300.796000", "101300.796000", "101300.796000", "101300.796000", "101300.796000", "101300.796000", "101300.812000", "101300.812000", "101300.812000", "101300.812000", "101300.812000", "101300.812000", "101300.812000", "101300.828000", "101300.828000", "101300.828000", "101300.828000", "101300.828000", "101300.843000", "101320.796000", "101320.796000", "101320.796000", "101320.796000", "101320.796000", "101320.796000", "101320.812000", "101320.812000", "101320.812000", "101320.828000", "101320.828000", "101320.828000", "101320.828000", "101320.828000", "101320.828000", "101320.843000", "101320.843000", "101320.843000", "101320.843000", "101320.843000", "101340.796000", "101340.796000", "101340.796000", "101340.796000", "101340.796000", "101340.796000", "101340.812000", "101340.812000", "101340.812000", "101340.828000", "101340.828000", "101340.828000", "101340.828000", "101340.828000", "101340.828000", "101340.828000", "101340.828000", "101340.843000", "101340.843000", "101340.843000", "101400.796000", "101400.796000", "101400.796000", "101400.796000", "101400.796000", "101400.796000", "101400.812000", "101400.812000", "101400.812000", "101400.828000", "101400.828000", "101400.828000", "101400.828000", "101400.828000", "101400.828000", "101400.828000", "101400.843000", "101400.843000", "101400.843000", "101400.843000", "101420.796000", "101420.796000", "101420.796000", "101420.796000", "101420.796000", "101420.796000", "101420.812000", "101420.812000", "101420.812000", "101420.812000", "101420.812000", "101420.812000", "101420.812000", "101420.812000", "101420.828000", "101420.828000", "101420.828000", "101420.828000", "101420.828000", "101420.828000", "101440.796000", "101440.796000", "101440.796000", "101440.796000", "101440.796000", "101440.796000", "101440.812000", "101440.812000", "101440.812000", "101440.812000", "101440.812000", "101440.812000", "101440.812000", "101440.812000", "101440.828000", "101440.828000", "101440.828000", "101440.828000", "101440.828000", "101440.828000", "101447.500000", "101447.515000"],
      "InstanceNumber": [1, 2, 3, 4, 5, 6, 7, 8, 9, 10, 11, 12, 13, 14, 15, 16, 17, 18, 19, 20, 21, 22, 23, 24, 25, 26, 27, 28, 29, 30, 31, 32, 33, 34, 35, 36, 37, 38, 39, 40, 41, 42, 43, 44, 45, 46, 47, 48, 49, 50, 51, 52, 53, 54, 55, 56, 57, 58, 59, 60, 61, 62, 63, 64, 65, 66, 67, 68, 69, 70, 71, 72, 73, 74, 75, 76, 77, 78, 79, 80, 81, 82, 83, 84, 85, 86, 87, 88, 89, 90, 91, 92, 93, 94, 95, 96, 97, 98, 99, 100, 101, 102, 103, 104, 105, 106, 107, 108, 109, 110, 111, 112, 113, 114, 115, 116, 117, 118, 119, 120, 121, 122, 123, 124, 125, 126, 127, 128, 129, 130, 131, 132, 133, 134, 135, 136, 137, 138, 139, 140, 141, 142, 143, 144, 145, 146, 147, 148, 149, 150, 151, 152, 153, 154, 155, 156, 157, 158, 159, 160, 161, 162, 163, 164, 165, 166, 167, 168, 169, 170, 171, 172, 173, 174, 175, 176, 177, 178, 179, 180, 181, 182, 183, 184, 185, 186, 187, 188, 189, 190, 191, 192, 193, 194, 195, 196, 197, 198, 199, 200, 201, 202, 203, 204, 205, 206, 207, 208, 209, 210, 211, 212, 213, 214, 215, 216, 217, 218, 219, 220, 221, 222, 223, 224, 225, 226, 227, 228, 229, 230, 231, 232, 233, 234, 235, 236, 237, 238, 239, 240, 241, 242, 243, 244, 245, 246, 247, 248, 249, 250, 251, 252, 253, 254, 255, 256, 257, 258, 259, 260, 261, 262, 263, 264, 265, 266, 267, 268, 269, 270, 271, 272, 273, 274, 275, 276, 277, 278, 279, 280, 281, 282, 283, 284, 285, 286, 287, 288, 289, 290, 291, 292, 293, 294, 295, 296, 297, 298, 299, 300, 301, 302, 303, 304, 305, 306, 307, 308, 309, 310, 311, 312, 313, 314, 315, 316, 317, 318, 319, 320, 321, 322, 323, 324, 325, 326, 327, 328, 329, 330],
      "LargestImagePixelValue": [2914, 2917, 2936, 2895, 2937, 2974, 2890, 2819, 2930, 2918, 2776, 2929, 2908, 2826, 2898, 2839, 2759, 2865, 2695, 2908, 2880, 2957, 2994, 2954, 2896, 2937, 2951, 2868, 2909, 2974, 2991, 2946, 2974, 2955, 2930, 2979, 2886, 2840, 2920, 3003, 2949, 2983, 2964, 2943, 2930, 2978, 2963, 2885, 2944, 2991, 3000, 2918, 2992, 2955, 2942, 2941, 2957, 2931, 2883, 3002, 2977, 2934, 3001, 2977, 2961, 2984, 2951, 2972, 2933, 3019, 2994, 2956, 2990, 2969, 2954, 2981, 2994, 3005, 2951, 2987, 2991, 2962, 2926, 2986, 2951, 2871, 2760, 2943, 2951, 2951, 2963, 2926, 2883, 2911, 2939, 2909, 2951, 2949, 2920, 2928, 2969, 2925, 2938, 2953, 2939, 2909, 2955, 2952, 2952, 2988, 2993, 2932, 2970, 2918, 2935, 2964, 2992, 2952, 2927, 2991, 3000, 2949, 2992, 2952, 2917, 2980, 2970, 3025, 3002, 2975, 3062, 3026, 2987, 3031, 2988, 3007, 3065, 3012, 3042, 3035, 3021, 2999, 3009, 3019, 3020, 3075, 2988, 3004, 2998, 2980, 3006, 2993, 2994, 3023, 2995, 3010, 2965, 2998, 3004, 3044, 2986, 3011, 2992, 2937, 3056, 3073, 2962, 3009, 3030, 2972, 3024, 2992, 2954, 3001, 3023, 2962, 2946, 2851, 2935, 2967, 2914, 2989, 2996, 2911, 3023, 2982, 2949, 2998, 2994, 2966, 2987, 2973, 3014, 2981, 3030, 3018, 3000, 2951, 3001, 2955, 3028, 3045, 2994, 3039, 3032, 3017, 3008, 2998, 2987, 3001, 3021, 2959, 2656, 2989, 3005, 2964, 3010, 2983, 2966, 2994, 3009, 2963, 3025, 3008, 3011, 2995, 2974, 3057, 3026, 3004, 3024, 2980, 3037, 2994, 3003, 2984, 2975, 2945, 3008, 2971, 2997, 3031, 3010, 3015, 3007, 3004, 2994, 3016, 3019, 2994, 3012, 2879, 3030, 3056, 3077, 3068, 3014, 3023, 2995, 2984, 2969, 3031, 3030, 3052, 3022, 3041, 3070, 2938, 2991, 3033, 2974, 3001, 3023, 3032, 3022, 2987, 2998, 2994, 2930, 3002, 3042, 2986, 3028, 2985, 3028, 2918, 3048, 3026, 2999, 3008, 3060, 3008, 3026, 3012, 3020, 3066, 3043, 3026, 3039, 3044, 3023, 3002, 3036, 3011, 3041, 3024, 3021, 2999, 3017, 3024, 3007, 3031, 3046, 3054, 3025, 2989, 2944, 2978, 2995, 3031, 3006, 3027, 3022, 2978, 3024, 3004, 2998, 3010, 3061, 3032],
      "WindowCenter": [457.0, 457.0, 458.0, 457.0, 457.0, 456.0, 455.0, 454.0, 454.0, 455.0, 455.0, 456.0, 456.0, 455.0, 455.0, 455.0, 454.0, 455.0, 455.0, 458.0, 460.0, 460.0, 458.0, 457.0, 455.0, 454.0, 454.0, 455.0, 456.0, 459.0, 459.0, 458.0, 457.0, 457.0, 456.0, 456.0, 455.0, 455.0, 456.0, 458.0, 458.0, 459.0, 457.0, 457.0, 455.0, 456.0, 456.0, 457.0, 458.0, 459.0, 460.0, 458.0, 456.0, 454.0, 453.0, 453.0, 453.0, 453.0, 455.0, 457.0, 458.0, 458.0, 458.0, 457.0, 456.0, 456.0, 456.0, 457.0, 457.0, 458.0, 458.0, 458.0, 457.0, 456.0, 457.0, 457.0, 458.0, 459.0, 458.0, 456.0, 456.0, 455.0, 454.0, 455.0, 457.0, 457.0, 457.0, 459.0, 459.0, 458.0, 457.0, 456.0, 455.0, 456.0, 457.0, 457.0, 456.0, 456.0, 455.0, 454.0, 454.0, 454.0, 454.0, 454.0, 455.0, 456.0, 457.0, 458.0, 458.0, 457.0, 457.0, 456.0, 456.0, 456.0, 456.0, 457.0, 458.0, 458.0, 458.0, 458.0, 458.0, 457.0, 456.0, 455.0, 455.0, 456.0, 457.0, 459.0, 459.0, 459.0, 459.0, 457.0, 455.0, 454.0, 454.0, 456.0, 458.0, 459.0, 459.0, 457.0, 455.0, 455.0, 455.0, 456.0, 458.0, 459.0, 458.0, 457.0, 456.0, 456.0, 456.0, 457.0, 458.0, 457.0, 457.0, 457.0, 456.0, 455.0, 456.0, 456.0, 455.0, 455.0, 456.0, 455.0, 455.0, 456.0, 455.0, 457.0, 458.0, 458.0, 458.0, 456.0, 455.0, 455.0, 454.0, 455.0, 455.0, 456.0, 458.0, 460.0, 457.0, 456.0, 455.0, 454.0, 455.0, 455.0, 456.0, 457.0, 456.0, 457.0, 456.0, 457.0, 459.0, 460.0, 461.0, 460.0, 459.0, 457.0, 456.0, 455.0, 456.0, 457.0, 459.0, 460.0, 461.0, 459.0, 458.0, 456.0, 455.0, 455.0, 455.0, 456.0, 455.0, 459.0, 459.0, 458.0, 456.0, 455.0, 454.0, 455.0, 455.0, 456.0, 457.0, 458.0, 459.0, 458.0, 456.0, 456.0, 455.0, 454.0, 455.0, 455.0, 458.0, 458.0, 459.0, 458.0, 457.0, 455.0, 454.0, 454.0, 453.0, 454.0, 456.0, 458.0, 459.0, 459.0, 458.0, 456.0, 456.0, 455.0, 455.0, 454.0, 457.0, 459.0, 459.0, 458.0, 456.0, 455.0, 454.0, 455.0, 455.0, 457.0, 458.0, 459.0, 458.0, 458.0, 457.0, 456.0, 457.0, 459.0, 459.0, 460.0, 459.0, 458.0, 458.0, 456.0, 455.0, 455.0, 456.0, 458.0, 459.0, 459.0, 458.0, 456.0, 455.0, 455.0, 457.0, 458.0, 458.0, 458.0, 457.0, 456.0, 455.0, 456.0, 456.0, 458.0, 459.0, 458.0, 457.0, 455.0, 455.0, 455.0, 456.0, 458.0, 459.0, 459.0, 458.0, 458.0, 457.0, 458.0, 458.0, 460.0, 461.0, 461.0, 461.0, 459.0, 458.0, 458.0, 458.0, 459.0, 460.0, 460.0, 459.0, 458.0, 458.0, 458.0, 457.0, 457.0, 457.0, 458.0],
