{
  "AcquisitionMatrixPE": 104,
  "AcquisitionNumber": 1,
  "AcquisitionTime": "09:06:30.182500",
  "BandwidthPerPixelPhaseEncode": 43.054,
  "BaseResolution": 104,
  "CoilString": "C:E1_2",
  "ConversionSoftware": "dcm2niix",
  "ConversionSoftwareVersion": "v1.0.20191031",
  "DerivedVendorReportedEchoSpacing": 0.000669999,
  "DeviceSerialNumber": "18932",
  "DwellTime": 2.8e-06,
  "EchoTime": 0.02,
  "EffectiveEchoSpacing": 0.000223333,
  "FlipAngle": 30,
  "ImageComments": "Unaliased_MB2_PE2",
  "ImageOrientationPatientDICOM": [1, 0, 0, 0, 0.943223, -0.332161],
  "ImageType": [
    "ORIGINAL",
    "PRIMARY",
    "M",
    "MB",
    "ND",
    "MOSAIC"
],
  "ImagingFrequency": 297.229,
  "InPlanePhaseEncodingDirectionDICOM": "COL",
  "InstitutionAddress": "Richmond_Street_North_1151_London_409EF2_Ontario_CA_N6A_5B7",
  "InstitutionName": "Robarts_Reserch_Institute",
  "InstitutionalDepartmentName": "Department",
  "MRAcquisitionType": "2D",
  "MagneticFieldStrength": 6.98,
  "Manufacturer": "Siemens",
  "ManufacturersModelName": "Investigational_Device_7T",
  "Modality": "MR",
  "MultibandAccelerationFactor": 2,
  "ParallelReductionFactorInPlane": 3,
  "PartialFourier": 0.875,
  "PatientPosition": "HFS",
  "PercentPhaseFOV": 100,
  "PhaseEncodingDirection": "j-",
  "PhaseEncodingSteps": 91,
  "PhaseResolution": 1,
  "PixelBandwidth": 1717,
  "ProcedureStepDescription": "Diedrichsen_SeqRep4",
  "ProtocolName": "mbep2d_bold_mb2_p3_AP_2iso",
  "PulseSequenceDetails": "%CustomerSeq%_cmrr_mbep2d_bold",
  "ReceiveCoilName": "CFMM_8Tx32Rx",
  "ReconMatrixPE": 104,
  "RefLinesPE": 36,
  "RepetitionTime": 1,
  "ScanOptions": "PFP_FS",
  "ScanningSequence": "EP",
  "SequenceName": "epfid2d1_104",
  "SequenceVariant": "SK_SS",
  "SeriesDescription": "mbep2d_bold_mb2_p3_AP_2iso",
  "SeriesNumber": 11,
  "ShimSetting": [-5, 2173, 67, 1641, -25, 214, 198, -161],
  "SliceThickness": 2,
  "SliceTiming": [0, 0.2275, 0.4575, 0.685, 0.9125, 0.1375, 0.365, 0.5925, 0.8225, 0.045, 0.275, 0.5025, 0.73, 0.9575, 0.1825, 0.41, 0.64, 0.8675, 0.0925, 0.32, 0.5475, 0.775, 0, 0.2275, 0.4575, 0.685, 0.9125, 0.1375, 0.365, 0.5925, 0.8225, 0.045, 0.275, 0.5025, 0.73, 0.9575, 0.1825, 0.41, 0.64, 0.8675, 0.0925, 0.32, 0.5475, 0.775],
  "SoftwareVersions": "syngo_MR_B17",
  "SpacingBetweenSlices": 2,
  "StationName": "MASTER",
  "TaskName": "dsp",
  "TotalReadoutTime": 0.0230033,
  "TxRefAmp": 120,
  "dcmmeta_affine": [
    [-2.0, 0.0, 0.0, 108.35835266113281],
    [0.0, 1.8864452838897705, -0.6643223166465759, -99.36136627197266],
    [0.0, 0.6643223166465759, 1.8864452838897705, -51.97029495239258],
    [0.0, 0.0, 0.0, 1.0]
],
  "dcmmeta_reorient_transform": [
    [0.0, -1.0, 0.0, 103.0],
    [1.0, 0.0, 0.0, 0.0],
    [0.0, 0.0, 1.0, 0.0],
    [0.0, 0.0, 0.0, 1.0]
],
  "dcmmeta_shape": [104, 104, 44, 340],
  "dcmmeta_slice_dim": 2,
  "dcmmeta_version": 0.6,
  "global": {
    "const": {
      "AcquisitionMatrix": [104, 0, 0, 104],
      "AngioFlag": "N",
      "BitsAllocated": 16,
      "BitsStored": 12,
      "Columns": 728,
      "EchoNumbers": 1,
      "EchoTime": 20.0,
      "EchoTrainLength": 1,
      "FlipAngle": 30.0,
      "HighBit": 11,
      "ImageOrientationPatient": [1.0, 0.0, 0.0, 0.0, 0.94322265279987, -0.3321611465015],
      "ImagePositionPatient": [-732.35835361481, -683.51343778257, 223.72345564428],
      "ImageType": [
        "ORIGINAL",
        "PRIMARY",
        "M",
        "MB",
        "ND",
        "MOSAIC"
],
      "ImagedNucleus": "1H",
      "ImagingFrequency": 297.228731,
      "InPlanePhaseEncodingDirection": "COL",
      "MRAcquisitionType": "2D",
      "MagneticFieldStrength": 6.98,
      "Manufacturer": "SIEMENS",
      "ManufacturerModelName": "Investigational_Device_7T",
      "Modality": "MR",
      "NumberOfAverages": 1.0,
      "NumberOfPhaseEncodingSteps": 91,
      "PercentPhaseFieldOfView": 100.0,
      "PercentSampling": 100.0,
      "PerformedProcedureStepStartTime": "085045.000000",
      "PhotometricInterpretation": "MONOCHROME2",
      "PixelBandwidth": 1717.0,
      "PixelRepresentation": 0,
      "PixelSpacing": [2.0, 2.0],
      "ProtocolName": "mbep2d_bold_mb2_p3_AP 2iso",
      "RepetitionTime": 1000.0,
      "Rows": 728,
      "SAR": 0.0,
      "SamplesPerPixel": 1,
      "ScanOptions": [
        "PFP",
        "FS"
],
      "ScanningSequence": "EP",
      "SequenceName": "epfid2d1_104",
      "SequenceVariant": [
        "SK",
        "SS"
],
      "SeriesDescription": "mbep2d_bold_mb2_p3_AP 2iso",
      "SeriesNumber": 11,
      "SeriesTime": "090700.843000",
      "SliceLocation": -16.015575816667,
      "SliceThickness": 2.0,
      "SmallestImagePixelValue": 0,
      "SoftwareVersions": "syngo MR B17",
      "SpacingBetweenSlices": 2.0000000229338,
      "SpecificCharacterSet": "ISO_IR 100",
      "StudyID": "1",
      "StudyTime": "085044.875000",
      "TransmitCoilName": "CFMM_8Tx32Rx",
      "VariableFlipAngleFlag": "N",
      "WindowCenterWidthExplanation": "Algo1",
      "dBdt": 0.0},
    "slices": {}
  },
  "time": {
    "samples": {
      "AcquisitionNumber": [1, 2, 3, 4, 5, 6, 7, 8, 9, 10, 11, 12, 13, 14, 15, 16, 17, 18, 19, 20, 21, 22, 23, 24, 25, 26, 27, 28, 29, 30, 31, 32, 33, 34, 35, 36, 37, 38, 39, 40, 41, 42, 43, 44, 45, 46, 47, 48, 49, 50, 51, 52, 53, 54, 55, 56, 57, 58, 59, 60, 61, 62, 63, 64, 65, 66, 67, 68, 69, 70, 71, 72, 73, 74, 75, 76, 77, 78, 79, 80, 81, 82, 83, 84, 85, 86, 87, 88, 89, 90, 91, 92, 93, 94, 95, 96, 97, 98, 99, 100, 101, 102, 103, 104, 105, 106, 107, 108, 109, 110, 111, 112, 113, 114, 115, 116, 117, 118, 119, 120, 121, 122, 123, 124, 125, 126, 127, 128, 129, 130, 131, 132, 133, 134, 135, 136, 137, 138, 139, 140, 141, 142, 143, 144, 145, 146, 147, 148, 149, 150, 151, 152, 153, 154, 155, 156, 157, 158, 159, 160, 161, 162, 163, 164, 165, 166, 167, 168, 169, 170, 171, 172, 173, 174, 175, 176, 177, 178, 179, 180, 181, 182, 183, 184, 185, 186, 187, 188, 189, 190, 191, 192, 193, 194, 195, 196, 197, 198, 199, 200, 201, 202, 203, 204, 205, 206, 207, 208, 209, 210, 211, 212, 213, 214, 215, 216, 217, 218, 219, 220, 221, 222, 223, 224, 225, 226, 227, 228, 229, 230, 231, 232, 233, 234, 235, 236, 237, 238, 239, 240, 241, 242, 243, 244, 245, 246, 247, 248, 249, 250, 251, 252, 253, 254, 255, 256, 257, 258, 259, 260, 261, 262, 263, 264, 265, 266, 267, 268, 269, 270, 271, 272, 273, 274, 275, 276, 277, 278, 279, 280, 281, 282, 283, 284, 285, 286, 287, 288, 289, 290, 291, 292, 293, 294, 295, 296, 297, 298, 299, 300, 301, 302, 303, 304, 305, 306, 307, 308, 309, 310, 311, 312, 313, 314, 315, 316, 317, 318, 319, 320, 321, 322, 323, 324, 325, 326, 327, 328, 329, 330, 331, 332, 333, 334, 335, 336, 337, 338, 339, 340],
      "AcquisitionTime": ["090630.182500", "090631.187500", "090632.190000", "090633.195000", "090634.200000", "090635.202500", "090636.207500", "090637.210000", "090638.215000", "090639.220000", "090640.222500", "090641.227500", "090642.230000", "090643.235000", "090644.240000", "090645.242500", "090646.247500", "090647.250000", "090648.255000", "090649.260000", "090650.262500", "090651.267500", "090652.270000", "090653.275000", "090654.280000", "090655.282500", "090656.287500", "090657.290000", "090658.295000", "090659.300000", "090700.302500", "090701.307500", "090702.312500", "090703.315000", "090704.320000", "090705.322500", "090706.327500", "090707.332500", "090708.335000", "090709.340000", "090710.342500", "090711.347500", "090712.352500", "090713.355000", "090714.360000", "090715.362500", "090716.367500", "090717.372500", "090718.375000", "090719.380000", "090720.382500", "090721.387500", "090722.392500", "090723.395000", "090724.400000", "090725.402500", "090726.407500", "090727.412500", "090728.415000", "090729.420000", "090730.425000", "090731.427500", "090732.432500", "090733.435000", "090734.440000", "090735.445000", "090736.447500", "090737.452500", "090738.455000", "090739.460000", "090740.465000", "090741.467500", "090742.472500", "090743.475000", "090744.480000", "090745.485000", "090746.487500", "090747.492500", "090748.495000", "090749.500000", "090750.505000", "090751.507500", "090752.512500", "090753.515000", "090754.520000", "090755.525000", "090756.527500", "090757.532500", "090758.535000", "090759.540000", "090800.545000", "090801.547500", "090802.552500", "090803.557500", "090804.560000", "090805.565000", "090806.567500", "090807.572500", "090808.577500", "090809.580000", "090810.585000", "090811.587500", "090812.592500", "090813.597500", "090814.600000", "090815.605000", "090816.607500", "090817.612500", "090818.617500", "090819.620000", "090820.625000", "090821.627500", "090822.632500", "090823.637500", "090824.640000", "090825.645000", "090826.647500", "090827.652500", "090828.657500", "090829.660000", "090830.665000", "090831.667500", "090832.672500", "090833.677500", "090834.680000", "090835.685000", "090836.690000", "090837.692500", "090838.697500", "090839.700000", "090840.705000", "090841.710000", "090842.712500", "090843.717500", "090844.720000", "090845.725000", "090846.730000", "090847.732500", "090848.737500", "090849.740000", "090850.745000", "090851.750000", "090852.752500", "090853.757500", "090854.760000", "090855.765000", "090856.770000", "090857.772500", "090858.777500", "090859.780000", "090900.785000", "090901.790000", "090902.792500", "090903.797500", "090904.802500", "090905.805000", "090906.810000", "090907.812500", "090908.817500", "090909.822500", "090910.825000", "090911.830000", "090912.832500", "090913.837500", "090914.842500", "090915.845000", "090916.850000", "090917.852500", "090918.857500", "090919.862500", "090920.865000", "090921.870000", "090922.872500", "090923.877500", "090924.882500", "090925.885000", "090926.890000", "090927.892500", "090928.897500", "090929.902500", "090930.905000", "090931.910000", "090932.912500", "090933.917500", "090934.922500", "090935.925000", "090936.930000", "090937.935000", "090938.937500", "090939.942500", "090940.945000", "090941.950000", "090942.955000", "090943.957500", "090944.962500", "090945.965000", "090946.970000", "090947.975000", "090948.977500", "090949.982500", "090950.985000", "090951.990000", "090952.995000", "090953.997500", "090955.002500", "090956.005000", "090957.010000", "090958.015000", "090959.017500", "091000.022500", "091001.025000", "091002.030000", "091003.035000", "091004.037500", "091005.042500", "091006.047500", "091007.050000", "091008.055000", "091009.057500", "091010.062500", "091011.067500", "091012.070000", "091013.075000", "091014.077500", "091015.082500", "091016.087500", "091017.090000", "091018.095000", "091019.097500", "091020.102500", "091021.107500", "091022.110000", "091023.115000", "091024.117500", "091025.122500", "091026.127500", "091027.130000", "091028.135000", "091029.137500", "091030.142500", "091031.147500", "091032.150000", "091033.155000", "091034.157500", "091035.162500", "091036.167500", "091037.170000", "091038.175000", "091039.180000", "091040.182500", "091041.187500", "091042.190000", "091043.195000", "091044.200000", "091045.202500", "091046.207500", "091047.210000", "091048.215000", "091049.220000", "091050.222500", "091051.227500", "091052.230000", "091053.235000", "091054.240000", "091055.242500", "091056.247500", "091057.250000", "091058.255000", "091059.260000", "091100.262500", "091101.267500", "091102.270000", "091103.275000", "091104.280000", "091105.282500", "091106.287500", "091107.290000", "091108.295000", "091109.300000", "091110.302500", "091111.307500", "091112.312500", "091113.315000", "091114.320000", "091115.322500", "091116.327500", "091117.332500", "091118.335000", "091119.340000", "091120.342500", "091121.347500", "091122.352500", "091123.355000", "091124.360000", "091125.362500", "091126.367500", "091127.372500", "091128.375000", "091129.380000", "091130.382500", "091131.387500", "091132.392500", "091133.395000", "091134.400000", "091135.402500", "091136.407500", "091137.412500", "091138.415000", "091139.420000", "091140.425000", "091141.427500", "091142.432500", "091143.435000", "091144.440000", "091145.445000", "091146.447500", "091147.452500", "091148.455000", "091149.460000", "091150.465000", "091151.467500", "091152.472500", "091153.475000", "091154.480000", "091155.485000", "091156.487500", "091157.492500", "091158.495000", "091159.500000", "091200.505000", "091201.507500", "091202.512500", "091203.515000", "091204.520000", "091205.525000", "091206.527500", "091207.532500", "091208.535000", "091209.540000", "091210.545000"],
      "ContentTime": ["090700.843000", "090700.843000", "090700.843000", "090700.843000", "090700.859000", "090700.859000", "090700.859000", "090700.859000", "090700.859000", "090700.859000", "090700.875000", "090700.875000", "090700.875000", "090700.875000", "090700.875000", "090700.875000", "090700.890000", "090700.890000", "090700.890000", "090700.890000", "090700.890000", "090700.890000", "090700.890000", "090700.890000", "090700.906000", "090700.906000", "090700.906000", "090700.906000", "090700.906000", "090720.796000", "090720.796000", "090720.796000", "090720.796000", "090720.796000", "090720.796000", "090720.812000", "090720.812000", "090720.812000", "090720.812000", "090720.812000", "090720.812000", "090720.812000", "090720.812000", "090720.828000", "090720.828000", "090720.828000", "090720.828000", "090720.828000", "090720.828000", "090740.796000", "090740.796000", "090740.796000", "090740.796000", "090740.796000", "090740.796000", "090740.812000", "090740.812000", "090740.812000", "090740.812000", "090740.812000", "090740.812000", "090740.812000", "090740.812000", "090740.828000", "090740.828000", "090740.828000", "090740.828000", "090740.828000", "090740.828000", "090800.796000", "090800.796000", "090800.796000", "090800.796000", "090800.812000", "090800.812000", "090800.812000", "090800.812000", "090800.812000", "090800.812000", "090800.812000", "090800.812000", "090800.828000", "090800.828000", "090800.828000", "090800.828000", "090800.828000", "090800.828000", "090800.828000", "090800.843000", "090820.796000", "090820.796000", "090820.796000", "090820.796000", "090820.796000", "090820.796000", "090820.812000", "090820.812000", "090820.812000", "090820.812000", "090820.812000", "090820.812000", "090820.812000", "090820.812000", "090820.828000", "090820.828000", "090820.828000", "090820.828000", "090820.828000", "090820.828000", "090840.796000", "090840.796000", "090840.796000", "090840.796000", "090840.796000", "090840.796000", "090840.812000", "090840.812000", "090840.812000", "090840.812000", "090840.812000", "090840.812000", "090840.828000", "090840.828000", "090840.828000", "090840.828000", "090840.828000", "090840.828000", "090840.843000", "090840.843000", "090900.796000", "090900.796000", "090900.796000", "090900.812000", "090900.812000", "090900.812000", "090900.812000", "090900.812000", "090900.812000", "090900.828000", "090900.828000", "090900.828000", "090900.828000", "090900.828000", "090900.828000", "090900.828000", "090900.828000", "090900.843000", "090900.843000", "090900.843000", "090920.796000", "090920.796000", "090920.796000", "090920.796000", "090920.796000", "090920.796000", "090920.812000", "090920.812000", "090920.812000", "090920.812000", "090920.828000", "090920.828000", "090920.828000", "090920.828000", "090920.828000", "090920.828000", "090920.828000", "090920.843000", "090920.843000", "090920.843000", "090940.796000", "090940.796000", "090940.796000", "090940.796000", "090940.796000", "090940.796000", "090940.812000", "090940.812000", "090940.812000", "090940.812000", "090940.812000", "090940.812000", "090940.812000", "090940.812000", "090940.828000", "090940.828000", "090940.828000", "090940.828000", "090940.828000", "090940.828000", "091000.796000", "091000.796000", "091000.796000", "091000.796000", "091000.796000", "091000.796000", "091000.812000", "091000.812000", "091000.812000", "091000.812000", "091000.828000", "091000.828000", "091000.828000", "091000.828000", "091000.828000", "091000.828000", "091000.828000", "091000.843000", "091000.843000", "091000.843000", "091020.796000", "091020.796000", "091020.796000", "091020.812000", "091020.812000", "091020.812000", "091020.812000", "091020.812000", "091020.812000", "091020.812000", "091020.828000", "091020.828000", "091020.828000", "091020.828000", "091020.828000", "091020.828000", "091020.828000", "091020.843000", "091020.843000", "091020.843000", "091040.796000", "091040.796000", "091040.796000", "091040.796000", "091040.796000", "091040.796000", "091040.812000", "091040.812000", "091040.812000", "091040.812000", "091040.812000", "091040.812000", "091040.812000", "091040.812000", "091040.828000", "091040.828000", "091040.828000", "091040.828000", "091040.828000", "091040.843000", "091100.796000", "091100.796000", "091100.796000", "091100.796000", "091100.812000", "091100.812000", "091100.812000", "091100.812000", "091100.812000", "091100.812000", "091100.812000", "091100.828000", "091100.828000", "091100.828000", "091100.828000", "091100.828000", "091100.828000", "091100.843000", "091100.843000", "091100.843000", "091120.796000", "091120.796000", "091120.796000", "091120.796000", "091120.796000", "091120.796000", "091120.812000", "091120.812000", "091120.812000", "091120.812000", "091120.812000", "091120.828000", "091120.828000", "091120.828000", "091120.828000", "091120.828000", "091120.828000", "091120.843000", "091120.843000", "091120.843000", "091140.796000", "091140.796000", "091140.796000", "091140.796000", "091140.796000", "091140.796000", "091140.812000", "091140.812000", "091140.812000", "091140.812000", "091140.812000", "091140.828000", "091140.828000", "091140.828000", "091140.828000", "091140.828000", "091140.828000", "091140.828000", "091140.843000", "091140.843000", "091200.796000", "091200.796000", "091200.796000", "091200.796000", "091200.796000", "091200.796000", "091200.812000", "091200.812000", "091200.812000", "091200.812000", "091200.812000", "091200.812000", "091200.828000", "091200.828000", "091200.828000", "091200.828000", "091200.843000", "091200.843000", "091200.843000", "091200.843000", "091216.156000", "091216.156000", "091216.156000", "091216.171000", "091216.171000", "091216.171000", "091216.171000", "091216.171000", "091216.171000", "091216.171000", "091216.171000"],
      "InstanceCreationTime": ["090700.843000", "090700.843000", "090700.843000", "090700.843000", "090700.859000", "090700.859000", "090700.859000", "090700.859000", "090700.859000", "090700.859000", "090700.875000", "090700.875000", "090700.875000", "090700.875000", "090700.875000", "090700.875000", "090700.890000", "090700.890000", "090700.890000", "090700.890000", "090700.890000", "090700.890000", "090700.890000", "090700.890000", "090700.906000", "090700.906000", "090700.906000", "090700.906000", "090700.906000", "090720.796000", "090720.796000", "090720.796000", "090720.796000", "090720.796000", "090720.796000", "090720.812000", "090720.812000", "090720.812000", "090720.812000", "090720.812000", "090720.812000", "090720.812000", "090720.812000", "090720.828000", "090720.828000", "090720.828000", "090720.828000", "090720.828000", "090720.828000", "090740.796000", "090740.796000", "090740.796000", "090740.796000", "090740.796000", "090740.796000", "090740.812000", "090740.812000", "090740.812000", "090740.812000", "090740.812000", "090740.812000", "090740.812000", "090740.812000", "090740.828000", "090740.828000", "090740.828000", "090740.828000", "090740.828000", "090740.828000", "090800.796000", "090800.796000", "090800.796000", "090800.796000", "090800.812000", "090800.812000", "090800.812000", "090800.812000", "090800.812000", "090800.812000", "090800.812000", "090800.812000", "090800.828000", "090800.828000", "090800.828000", "090800.828000", "090800.828000", "090800.828000", "090800.828000", "090800.843000", "090820.796000", "090820.796000", "090820.796000", "090820.796000", "090820.796000", "090820.796000", "090820.812000", "090820.812000", "090820.812000", "090820.812000", "090820.812000", "090820.812000", "090820.812000", "090820.812000", "090820.828000", "090820.828000", "090820.828000", "090820.828000", "090820.828000", "090820.828000", "090840.796000", "090840.796000", "090840.796000", "090840.796000", "090840.796000", "090840.796000", "090840.812000", "090840.812000", "090840.812000", "090840.812000", "090840.812000", "090840.812000", "090840.828000", "090840.828000", "090840.828000", "090840.828000", "090840.828000", "090840.828000", "090840.843000", "090840.843000", "090900.796000", "090900.796000", "090900.796000", "090900.812000", "090900.812000", "090900.812000", "090900.812000", "090900.812000", "090900.812000", "090900.828000", "090900.828000", "090900.828000", "090900.828000", "090900.828000", "090900.828000", "090900.828000", "090900.828000", "090900.843000", "090900.843000", "090900.843000", "090920.796000", "090920.796000", "090920.796000", "090920.796000", "090920.796000", "090920.796000", "090920.812000", "090920.812000", "090920.812000", "090920.812000", "090920.828000", "090920.828000", "090920.828000", "090920.828000", "090920.828000", "090920.828000", "090920.828000", "090920.843000", "090920.843000", "090920.843000", "090940.796000", "090940.796000", "090940.796000", "090940.796000", "090940.796000", "090940.796000", "090940.812000", "090940.812000", "090940.812000", "090940.812000", "090940.812000", "090940.812000", "090940.812000", "090940.812000", "090940.828000", "090940.828000", "090940.828000", "090940.828000", "090940.828000", "090940.828000", "091000.796000", "091000.796000", "091000.796000", "091000.796000", "091000.796000", "091000.796000", "091000.812000", "091000.812000", "091000.812000", "091000.812000", "091000.828000", "091000.828000", "091000.828000", "091000.828000", "091000.828000", "091000.828000", "091000.828000", "091000.843000", "091000.843000", "091000.843000", "091020.796000", "091020.796000", "091020.796000", "091020.812000", "091020.812000", "091020.812000", "091020.812000", "091020.812000", "091020.812000", "091020.812000", "091020.828000", "091020.828000", "091020.828000", "091020.828000", "091020.828000", "091020.828000", "091020.828000", "091020.843000", "091020.843000", "091020.843000", "091040.796000", "091040.796000", "091040.796000", "091040.796000", "091040.796000", "091040.796000", "091040.812000", "091040.812000", "091040.812000", "091040.812000", "091040.812000", "091040.812000", "091040.812000", "091040.812000", "091040.828000", "091040.828000", "091040.828000", "091040.828000", "091040.828000", "091040.843000", "091100.796000", "091100.796000", "091100.796000", "091100.796000", "091100.812000", "091100.812000", "091100.812000", "091100.812000", "091100.812000", "091100.812000", "091100.812000", "091100.828000", "091100.828000", "091100.828000", "091100.828000", "091100.828000", "091100.828000", "091100.843000", "091100.843000", "091100.843000", "091120.796000", "091120.796000", "091120.796000", "091120.796000", "091120.796000", "091120.796000", "091120.812000", "091120.812000", "091120.812000", "091120.812000", "091120.812000", "091120.828000", "091120.828000", "091120.828000", "091120.828000", "091120.828000", "091120.828000", "091120.843000", "091120.843000", "091120.843000", "091140.796000", "091140.796000", "091140.796000", "091140.796000", "091140.796000", "091140.796000", "091140.812000", "091140.812000", "091140.812000", "091140.812000", "091140.812000", "091140.828000", "091140.828000", "091140.828000", "091140.828000", "091140.828000", "091140.828000", "091140.828000", "091140.843000", "091140.843000", "091200.796000", "091200.796000", "091200.796000", "091200.796000", "091200.796000", "091200.796000", "091200.812000", "091200.812000", "091200.812000", "091200.812000", "091200.812000", "091200.812000", "091200.828000", "091200.828000", "091200.828000", "091200.828000", "091200.843000", "091200.843000", "091200.843000", "091200.843000", "091216.156000", "091216.156000", "091216.156000", "091216.171000", "091216.171000", "091216.171000", "091216.171000", "091216.171000", "091216.171000", "091216.171000", "091216.171000"],
      "InstanceNumber": [1, 2, 3, 4, 5, 6, 7, 8, 9, 10, 11, 12, 13, 14, 15, 16, 17, 18, 19, 20, 21, 22, 23, 24, 25, 26, 27, 28, 29, 30, 31, 32, 33, 34, 35, 36, 37, 38, 39, 40, 41, 42, 43, 44, 45, 46, 47, 48, 49, 50, 51, 52, 53, 54, 55, 56, 57, 58, 59, 60, 61, 62, 63, 64, 65, 66, 67, 68, 69, 70, 71, 72, 73, 74, 75, 76, 77, 78, 79, 80, 81, 82, 83, 84, 85, 86, 87, 88, 89, 90, 91, 92, 93, 94, 95, 96, 97, 98, 99, 100, 101, 102, 103, 104, 105, 106, 107, 108, 109, 110, 111, 112, 113, 114, 115, 116, 117, 118, 119, 120, 121, 122, 123, 124, 125, 126, 127, 128, 129, 130, 131, 132, 133, 134, 135, 136, 137, 138, 139, 140, 141, 142, 143, 144, 145, 146, 147, 148, 149, 150, 151, 152, 153, 154, 155, 156, 157, 158, 159, 160, 161, 162, 163, 164, 165, 166, 167, 168, 169, 170, 171, 172, 173, 174, 175, 176, 177, 178, 179, 180, 181, 182, 183, 184, 185, 186, 187, 188, 189, 190, 191, 192, 193, 194, 195, 196, 197, 198, 199, 200, 201, 202, 203, 204, 205, 206, 207, 208, 209, 210, 211, 212, 213, 214, 215, 216, 217, 218, 219, 220, 221, 222, 223, 224, 225, 226, 227, 228, 229, 230, 231, 232, 233, 234, 235, 236, 237, 238, 239, 240, 241, 242, 243, 244, 245, 246, 247, 248, 249, 250, 251, 252, 253, 254, 255, 256, 257, 258, 259, 260, 261, 262, 263, 264, 265, 266, 267, 268, 269, 270, 271, 272, 273, 274, 275, 276, 277, 278, 279, 280, 281, 282, 283, 284, 285, 286, 287, 288, 289, 290, 291, 292, 293, 294, 295, 296, 297, 298, 299, 300, 301, 302, 303, 304, 305, 306, 307, 308, 309, 310, 311, 312, 313, 314, 315, 316, 317, 318, 319, 320, 321, 322, 323, 324, 325, 326, 327, 328, 329, 330, 331, 332, 333, 334, 335, 336, 337, 338, 339, 340],
      "LargestImagePixelValue": [2880, 2940, 2760, 2771, 2842, 2762, 2733, 2793, 2775, 2773, 2773, 2863, 2752, 2716, 2810, 2759, 2800, 2813, 2766, 2808, 2824, 2811, 2812, 2831, 2775, 2824, 2837, 2722, 2725, 2868, 2736, 2757, 2761, 2757, 2717, 2824, 2734, 2682, 2753, 2827, 2748, 2804, 2783, 2706, 2781, 2777, 2814, 2743, 2749, 2720, 2787, 2852, 2829, 2750, 2829, 2721, 2737, 2774, 2782, 2789, 2814, 2787, 2729, 2770, 2714, 2735, 2777, 2771, 2756, 2813, 2778, 2738, 2755, 2755, 2777, 2793, 2744, 2771, 2796, 2774, 2763, 2813, 2742, 2776, 2774, 2762, 2780, 2809, 2766, 2767, 2822, 2768, 2713, 2749, 2857, 2768, 2779, 2807, 2739, 2765, 2692, 2789, 2784, 2718, 2808, 2768, 2821, 2767, 2701, 2813, 2764, 2838, 2714, 2859, 2802, 2750, 2839, 2720, 2749, 2812, 2783, 2787, 2812, 2700, 2788, 2801, 2726, 2778, 2844, 2823, 2793, 2843, 2775, 2772, 2833, 2755, 2821, 2838, 2775, 2764, 2839, 2738, 2679, 2767, 2761, 2764, 2808, 2806, 2747, 2857, 2802, 2754, 2709, 2768, 2735, 2796, 2800, 2767, 2821, 2773, 2799, 2853, 2737, 2748, 2802, 2767, 2808, 2803, 2740, 2805, 2815, 2772, 2764, 2830, 2734, 2764, 2809, 2692, 2782, 2817, 2768, 2823, 2794, 2739, 2782, 2850, 2777, 2822, 2757, 2838, 2866, 2812, 2832, 2885, 2836, 2811, 2786, 2750, 2781, 2864, 2775, 2822, 2835, 2773, 2881, 2877, 2825, 2807, 2818, 2733, 2833, 2853, 2765, 2843, 2825, 2758, 2814, 2805, 2767, 2870, 2853, 2802, 2806, 2800, 2759, 2791, 2791, 2758, 2883, 2805, 2820, 2858, 2774, 2837, 2822, 2802, 2821, 2844, 2804, 2888, 2742, 2734, 2804, 2764, 2820, 2758, 2828, 2782, 2786, 2867, 2794, 2866, 2854, 2778, 2804, 2810, 2763, 2790, 2856, 2853, 2794, 2806, 2765, 2763, 2753, 2853, 2771, 2766, 2808, 2760, 2842, 2835, 2747, 2877, 2862, 2732, 2764, 2816, 2703, 2845, 2848, 2772, 2773, 2822, 2795, 2854, 2862, 2778, 2826, 2809, 2946, 2859, 2832, 2797, 2844, 2781, 2855, 2843, 2786, 2826, 2853, 2792, 2778, 2784, 2771, 2841, 2802, 2743, 2812, 2795, 2809, 2779, 2808, 2811, 2815, 2744, 2808, 2753, 2764, 2816, 2816, 2830, 2837, 2775, 2828, 2829, 2802, 2850, 2775, 2812, 2848, 2822, 2803, 2822, 2862, 2888, 2787, 2755, 2783, 2876],
