{
    "AcquisitionMatrixPE": 84,
    "AcquisitionNumber": 1,
    "AcquisitionTime": "12:28:31.907500",
    "BaseResolution": 168,
    "CoilString": "C:E1_2",
    "ConversionSoftware": "dcm2niix",
    "ConversionSoftwareVersion": "v1.0.20191031",
    "DeviceSerialNumber": "18932",
    "DwellTime": 4.9e-06,
    "EchoNumber": 2,
    "EchoTime": 0.0051,
    "EchoTime1": 0.00408,
    "EchoTime2": 0.0051,
    "FlipAngle": 35,
    "ImageOrientationPatientDICOM": [
        1,
        -2.05103e-10,
        0,
        2.05103e-10,
        1,
        0
    ],
    "ImageType": [
        "ORIGINAL",
        "PRIMARY",
        "P",
        "ND",
        "PHASE"
    ],
    "ImagingFrequency": 297.229,
    "InPlanePhaseEncodingDirectionDICOM": "ROW",
    "InstitutionAddress": "Richmond_Street_North_1151_London_409EF2_Ontario_CA_N6A_5B7",
    "InstitutionName": "Robarts_Reserch_Institute",
    "InstitutionalDepartmentName": "Department",
    "MRAcquisitionType": "2D",
    "MagneticFieldStrength": 6.98,
    "Manufacturer": "Siemens",
    "ManufacturersModelName": "Investigational_Device_7T",
    "Modality": "MR",
    "PartialFourier": 0.75,
    "PatientPosition": "HFS",
    "PercentPhaseFOV": 100,
    "PhaseEncodingDirection": "i",
    "PhaseEncodingSteps": 63,
    "PhaseResolution": 0.5,
    "PixelBandwidth": 607,
    "ProcedureStepDescription": "Diedrichsen_SeqRep4",
    "ProtocolName": "gre_field_mapping",
    "PulseSequenceDetails": "%SiemensSeq%_gre_field_mapping",
    "ReceiveCoilName": "CFMM_8Tx32Rx",
    "ReconMatrixPE": 168,
    "RepetitionTime": 0.475,
    "ScanOptions": "PFP",
    "ScanningSequence": "GR",
    "SequenceName": "fm2d2r",
    "SequenceVariant": "SP",
    "SeriesDescription": "gre_field_mapping",
    "SeriesNumber": 38,
    "ShimSetting": [
        -43,
        1883,
        307,
        342,
        11,
        -164,
        -204,
        -86
    ],
    "SliceThickness": 2.5,
    "SliceTiming": [
        0.23438,
        0,
        0.24219,
        0.00781,
        0.25,
        0.01562,
        0.25781,
        0.02344,
        0.26562,
        0.03125,
        0.27344,
        0.03906,
        0.28125,
        0.04688,
        0.28906,
        0.04688,
        0.29688,
        0.05469,
        0.30469,
        0.0625,
        0.3125,
        0.07031,
        0.32031,
        0.07812,
        0.32812,
        0.08594,
        0.33594,
        0.09375,
        0.34375,
        0.10156,
        0.35156,
        0.10938,
        0.35938,
        0.11719,
        0.35938,
        0.125,
        0.36719,
        0.13281,
        0.375,
        0.14062,
        0.38281,
        0.14844,
        0.39062,
        0.15625,
        0.39844,
        0.16406,
        0.40625,
        0.17188,
        0.41406,
        0.17188,
        0.42188,
        0.17969,
        0.42969,
        0.1875,
        0.4375,
        0.19531,
        0.44531,
        0.20312,
        0.45312,
        0.21094,
        0.46094,
        0.21875,
        0.46875,
        0.22656
    ],
    "SoftwareVersions": "syngo_MR_B17",
    "SpacingBetweenSlices": 2.5,
    "StationName": "MASTER",
    "TxRefAmp": 124,
    "dcmmeta_affine": [
        [
            -1.25,
            2.5637925116228644e-10,
            0.0,
            114.9911117553711
        ],
        [
            2.5637925116228644e-10,
            1.25,
            0.0,
            -100.23992156982422
        ],
        [
            0.0,
            0.0,
            2.5,
            -93.27349090576172
        ],
        [
            0.0,
            0.0,
            0.0,
            1.0
        ]
    ],
    "dcmmeta_reorient_transform": [
        [
            0.0,
            -1.0,
            0.0,
            167.0
        ],
        [
            1.0,
            0.0,
            0.0,
            0.0
        ],
        [
            0.0,
            0.0,
            -1.0,
            63.0
        ],
        [
            0.0,
            0.0,
            0.0,
            1.0
        ]
    ],
    "dcmmeta_shape": [
        168,
        168,
        64
    ],
    "dcmmeta_slice_dim": 2,
    "dcmmeta_version": 0.6,
    "global": {
        "const": {
            "AcquisitionMatrix": [
                0,
                168,
                84,
                0
            ],
            "AcquisitionNumber": 1,
            "AngioFlag": "N",
            "BitsAllocated": 16,
            "BitsStored": 12,
            "Columns": 168,
            "EchoNumbers": 2,
            "EchoTime": 5.1,
            "EchoTrainLength": 1,
            "FlipAngle": 35.0,
            "HighBit": 11,
            "ImageOrientationPatient": [
                1.0,
                -2.051034e-10,
                0.0,
                2.051034e-10,
                1.0,
                0.0
            ],
            "ImageType": [
                "ORIGINAL",
                "PRIMARY",
                "P",
                "ND"
            ],
            "ImagedNucleus": "1H",
            "ImagingFrequency": 297.22908,
            "InPlanePhaseEncodingDirection": "ROW",
            "MRAcquisitionType": "2D",
            "MagneticFieldStrength": 6.98,
            "Manufacturer": "SIEMENS",
            "ManufacturerModelName": "Investigational_Device_7T",
            "Modality": "MR",
            "NumberOfAverages": 1.0,
            "NumberOfPhaseEncodingSteps": 63,
            "PercentPhaseFieldOfView": 100.0,
            "PercentSampling": 50.0,
            "PerformedProcedureStepStartTime": "104908.406000",
            "PhotometricInterpretation": "MONOCHROME2",
            "PixelBandwidth": 607.0,
            "PixelRepresentation": 0,
            "PixelSpacing": [
                1.25,
                1.25
            ],
            "ProtocolName": "gre_field_mapping",
            "RepetitionTime": 475.0,
            "RescaleIntercept": -4096.0,
            "RescaleSlope": 2.0,
            "RescaleType": "US",
            "Rows": 168,
            "SAR": 0.0,
            "SamplesPerPixel": 1,
            "ScanOptions": "PFP",
            "ScanningSequence": "GR",
            "SequenceName": "fm2d2r",
            "SequenceVariant": "SP",
            "SeriesDescription": "gre_field_mapping",
            "SeriesNumber": 38,
            "SeriesTime": "122937.875000",
            "SliceThickness": 2.5,
            "SoftwareVersions": "syngo MR B17",
            "SpacingBetweenSlices": 2.5,
            "SpecificCharacterSet": "ISO_IR 100",
            "StudyID": "1",
            "StudyTime": "104908.343000",
            "TransmitCoilName": "CFMM_8Tx32Rx",
            "VariableFlipAngleFlag": "N",
            "WindowCenterWidthExplanation": "Algo1",
            "dBdt": 0.0
        },
        "slices": {
            "AcquisitionTime": [
                "122831.907500",
                "122831.670000",
                "122831.915000",
                "122831.677500",
                "122831.922500",
                "122831.685000",
                "122831.930000",
                "122831.692500",
                "122831.937500",
                "122831.700000",
                "122831.945000",
                "122831.707500",
                "122831.952500",
                "122831.715000",
                "122831.960000",
                "122831.722500",
                "122831.967500",
                "122831.730000",
                "122831.975000",
                "122831.737500",
                "122831.982500",
                "122831.745000",
                "122831.990000",
                "122831.752500",
                "122831.997500",
                "122831.757500",
                "122832.005000",
                "122831.765000",
                "122832.012500",
                "122831.772500",
                "122832.020000",
                "122831.780000",
                "122832.027500",
                "122831.787500",
                "122832.035000",
                "122831.795000",
                "122832.042500",
                "122831.802500",
                "122832.050000",
                "122831.810000",
                "122832.057500",
                "122831.817500",
                "122832.065000",
                "122831.825000",
                "122832.072500",
                "122831.832500",
                "122832.080000",
                "122831.840000",
                "122832.087500",
                "122831.847500",
                "122832.095000",
                "122831.855000",
                "122832.102500",
                "122831.862500",
                "122832.110000",
                "122831.870000",
                "122832.117500",
                "122831.877500",
                "122832.125000",
                "122831.885000",
                "122832.130000",
                "122831.892500",
                "122832.137500",
                "122831.900000"
            ],
            "ContentTime": [
                "122937.984000",
                "122937.875000",
                "122937.984000",
                "122937.890000",
                "122937.984000",
                "122937.890000",
                "122937.984000",
                "122937.890000",
                "122938.000000",
                "122937.890000",
                "122938.000000",
                "122937.890000",
                "122938.000000",
                "122937.890000",
                "122938.000000",
                "122937.890000",
                "122938.000000",
                "122937.906000",
                "122938.000000",
                "122937.906000",
                "122938.015000",
                "122937.906000",
                "122938.015000",
                "122937.906000",
                "122938.015000",
                "122937.906000",
                "122938.015000",
                "122937.906000",
                "122938.015000",
                "122937.906000",
                "122938.015000",
                "122937.921000",
                "122938.015000",
                "122937.921000",
                "122938.031000",
                "122937.921000",
                "122938.031000",
                "122937.937000",
                "122938.031000",
                "122937.937000",
                "122938.031000",
                "122937.937000",
                "122938.031000",
                "122937.937000",
                "122938.031000",
                "122937.937000",
                "122938.031000",
                "122937.937000",
                "122938.031000",
                "122937.953000",
                "122938.046000",
                "122937.953000",
                "122938.046000",
                "122937.953000",
                "122938.046000",
                "122937.953000",
                "122938.046000",
                "122937.953000",
                "122938.046000",
                "122937.953000",
                "122938.046000",
                "122937.953000",
                "122938.062000",
                "122937.968000"
            ],
            "CsaImage.ICE_Dims": [
                "X_2_1_1_1_1_1_33_1_1_1_1_113",
                "X_2_1_1_1_1_1_1_1_1_2_1_113",
                "X_2_1_1_1_1_1_34_1_1_3_1_113",
                "X_2_1_1_1_1_1_2_1_1_4_1_113",
                "X_2_1_1_1_1_1_35_1_1_5_1_113",
                "X_2_1_1_1_1_1_3_1_1_6_1_113",
                "X_2_1_1_1_1_1_36_1_1_7_1_113",
                "X_2_1_1_1_1_1_4_1_1_8_1_113",
                "X_2_1_1_1_1_1_37_1_1_9_1_113",
                "X_2_1_1_1_1_1_5_1_1_10_1_113",
                "X_2_1_1_1_1_1_38_1_1_11_1_113",
                "X_2_1_1_1_1_1_6_1_1_12_1_113",
                "X_2_1_1_1_1_1_39_1_1_13_1_113",
                "X_2_1_1_1_1_1_7_1_1_14_1_113",
                "X_2_1_1_1_1_1_40_1_1_15_1_113",
                "X_2_1_1_1_1_1_8_1_1_16_1_113",
                "X_2_1_1_1_1_1_41_1_1_17_1_113",
                "X_2_1_1_1_1_1_9_1_1_18_1_113",
                "X_2_1_1_1_1_1_42_1_1_19_1_113",
                "X_2_1_1_1_1_1_10_1_1_20_1_113",
                "X_2_1_1_1_1_1_43_1_1_21_1_113",
                "X_2_1_1_1_1_1_11_1_1_22_1_113",
                "X_2_1_1_1_1_1_44_1_1_23_1_113",
                "X_2_1_1_1_1_1_12_1_1_24_1_113",
                "X_2_1_1_1_1_1_45_1_1_25_1_113",
                "X_2_1_1_1_1_1_13_1_1_26_1_113",
                "X_2_1_1_1_1_1_46_1_1_27_1_113",
                "X_2_1_1_1_1_1_14_1_1_28_1_113",
                "X_2_1_1_1_1_1_47_1_1_29_1_113",
                "X_2_1_1_1_1_1_15_1_1_30_1_113",
                "X_2_1_1_1_1_1_48_1_1_31_1_113",
                "X_2_1_1_1_1_1_16_1_1_32_1_113",
                "X_2_1_1_1_1_1_49_1_1_33_1_113",
                "X_2_1_1_1_1_1_17_1_1_34_1_113",
                "X_2_1_1_1_1_1_50_1_1_35_1_113",
                "X_2_1_1_1_1_1_18_1_1_36_1_113",
                "X_2_1_1_1_1_1_51_1_1_37_1_113",
                "X_2_1_1_1_1_1_19_1_1_38_1_113",
                "X_2_1_1_1_1_1_52_1_1_39_1_113",
                "X_2_1_1_1_1_1_20_1_1_40_1_113",
                "X_2_1_1_1_1_1_53_1_1_41_1_113",
                "X_2_1_1_1_1_1_21_1_1_42_1_113",
                "X_2_1_1_1_1_1_54_1_1_43_1_113",
                "X_2_1_1_1_1_1_22_1_1_44_1_113",
                "X_2_1_1_1_1_1_55_1_1_45_1_113",
                "X_2_1_1_1_1_1_23_1_1_46_1_113",
                "X_2_1_1_1_1_1_56_1_1_47_1_113",
                "X_2_1_1_1_1_1_24_1_1_48_1_113",
                "X_2_1_1_1_1_1_57_1_1_49_1_113",
                "X_2_1_1_1_1_1_25_1_1_50_1_113",
                "X_2_1_1_1_1_1_58_1_1_51_1_113",
                "X_2_1_1_1_1_1_26_1_1_52_1_113",
                "X_2_1_1_1_1_1_59_1_1_53_1_113",
                "X_2_1_1_1_1_1_27_1_1_54_1_113",
                "X_2_1_1_1_1_1_60_1_1_55_1_113",
                "X_2_1_1_1_1_1_28_1_1_56_1_113",
                "X_2_1_1_1_1_1_61_1_1_57_1_113",
                "X_2_1_1_1_1_1_29_1_1_58_1_113",
                "X_2_1_1_1_1_1_62_1_1_59_1_113",
                "X_2_1_1_1_1_1_30_1_1_60_1_113",
                "X_2_1_1_1_1_1_63_1_1_61_1_113",
                "X_2_1_1_1_1_1_31_1_1_62_1_113",
                "X_2_1_1_1_1_1_64_1_1_63_1_113",
                "X_2_1_1_1_1_1_32_1_1_64_1_113"
            ],
            "CsaImage.ProtocolSliceNumber": [
                0,
                1,
                2,
                3,
                4,
                5,
                6,
                7,
                8,
                9,
                10,
                11,
                12,
                13,
                14,
                15,
                16,
                17,
                18,
                19,
                20,
                21,
                22,
                23,
                24,
                25,
                26,
                27,
                28,
                29,
                30,
                31,
                32,
                33,
                34,
                35,
                36,
                37,
                38,
                39,
                40,
                41,
                42,
                43,
                44,
                45,
                46,
                47,
                48,
                49,
                50,
                51,
                52,
                53,
                54,
                55,
                56,
                57,
                58,
                59,
                60,
                61,
                62,
                63
            ],
            "CsaImage.SliceMeasurementDuration": [
                59137.5,
                59135.0,
                59137.5,
                59135.0,
                59137.5,
                59135.0,
                59137.5,
                59135.0,
                59137.5,
                59135.0,
                59137.5,
                59135.0,
                59137.5,
                59135.0,
                59137.5,
                59135.0,
                59137.5,
                59135.0,
                59137.5,
                59135.0,
                59137.5,
                59135.0,
                59135.0,
                59135.0,
                59135.0,
                59137.5,
                59135.0,
                59137.5,
                59135.0,
                59137.5,
                59135.0,
                59137.5,
                59135.0,
                59137.5,
                59135.0,
                59137.5,
                59135.0,
                59137.5,
                59135.0,
                59137.5,
                59135.0,
                59137.5,
                59135.0,
                59137.5,
                59135.0,
                59137.5,
                59135.0,
                59137.5,
                59135.0,
                59137.5,
                59135.0,
                59137.5,
                59135.0,
                59137.5,
                59135.0,
                59137.5,
                59135.0,
                59137.5,
                59135.0,
                59137.5,
                59137.5,
                59137.5,
                59137.5,
                59137.5
            ],
            "CsaImage.SlicePosition_PCS": [
                [
                    -114.99110987,
                    -108.51008008,
                    -93.27349091
                ],
                [
                    -114.99110987,
                    -108.51008008,
                    -90.77349091
                ],
                [
                    -114.99110987,
                    -108.51008008,
                    -88.27349091
                ],
                [
                    -114.99110987,
                    -108.51008008,
                    -85.77349091
                ],
                [
                    -114.99110987,
                    -108.51008008,
                    -83.27349091
                ],
                [
                    -114.99110987,
                    -108.51008008,
                    -80.77349091
                ],
                [
                    -114.99110987,
                    -108.51008008,
                    -78.27349091
                ],
                [
                    -114.99110987,
                    -108.51008008,
                    -75.77349091
                ],
                [
                    -114.99110987,
                    -108.51008008,
                    -73.27349091
                ],
                [
                    -114.99110987,
                    -108.51008008,
                    -70.77349091
                ],
                [
                    -114.99110987,
                    -108.51008008,
                    -68.27349091
                ],
                [
                    -114.99110987,
                    -108.51008008,
                    -65.77349091
                ],
                [
                    -114.99110987,
                    -108.51008008,
                    -63.27349091
                ],
                [
                    -114.99110987,
                    -108.51008008,
                    -60.77349091
                ],
                [
                    -114.99110987,
                    -108.51008008,
                    -58.27349091
                ],
                [
                    -114.99110987,
                    -108.51008008,
                    -55.77349091
                ],
                [
                    -114.99110987,
                    -108.51008008,
                    -53.27349091
                ],
                [
                    -114.99110987,
                    -108.51008008,
                    -50.77349091
                ],
                [
                    -114.99110987,
                    -108.51008008,
                    -48.27349091
                ],
                [
                    -114.99110987,
                    -108.51008008,
                    -45.77349091
                ],
                [
                    -114.99110987,
                    -108.51008008,
                    -43.27349091
                ],
                [
                    -114.99110987,
                    -108.51008008,
                    -40.77349091
                ],
                [
                    -114.99110987,
                    -108.51008008,
                    -38.27349091
                ],
                [
                    -114.99110987,
                    -108.51008008,
                    -35.77349091
                ],
                [
                    -114.99110987,
                    -108.51008008,
                    -33.27349091
                ],
                [
                    -114.99110987,
                    -108.51008008,
                    -30.77349091
                ],
                [
                    -114.99110987,
                    -108.51008008,
                    -28.27349091
                ],
                [
                    -114.99110987,
                    -108.51008008,
                    -25.77349091
                ],
                [
                    -114.99110987,
                    -108.51008008,
                    -23.27349091
                ],
                [
                    -114.99110987,
                    -108.51008008,
                    -20.77349091
                ],
                [
                    -114.99110987,
                    -108.51008008,
                    -18.27349091
                ],
                [
                    -114.99110987,
                    -108.51008008,
                    -15.77349186
                ],
                [
                    -114.99110987,
                    -108.51008008,
                    -13.27349186
                ],
                [
                    -114.99110987,
                    -108.51008008,
                    -10.77349186
                ],
                [
                    -114.99110987,
                    -108.51008008,
                    -8.27349186
                ],
                [
                    -114.99110987,
                    -108.51008008,
                    -5.77349186
                ],
                [
                    -114.99110987,
                    -108.51008008,
                    -3.27349162
                ],
                [
                    -114.99110987,
                    -108.51008008,
                    -0.77349174
                ],
                [
                    -114.99110987,
                    -108.51008008,
                    1.72650826
                ],
                [
                    -114.99110987,
                    -108.51008008,
                    4.22650814
                ],
                [
                    -114.99110987,
                    -108.51008008,
                    6.72650814
                ],
                [
                    -114.99110987,
                    -108.51008008,
                    9.22650814
                ],
                [
                    -114.99110987,
                    -108.51008008,
                    11.72650814
                ],
                [
                    -114.99110987,
                    -108.51008008,
                    14.22650814
                ],
                [
                    -114.99110987,
                    -108.51008008,
                    16.72650909
                ],
                [
                    -114.99110987,
                    -108.51008008,
                    19.22650909
                ],
                [
                    -114.99110987,
                    -108.51008008,
                    21.72650909
                ],
                [
                    -114.99110987,
                    -108.51008008,
                    24.22650909
                ],
                [
                    -114.99110987,
                    -108.51008008,
                    26.72650909
                ],
                [
                    -114.99110987,
                    -108.51008008,
                    29.22650909
                ],
                [
                    -114.99110987,
                    -108.51008008,
                    31.72650909
                ],
                [
                    -114.99110987,
                    -108.51008008,
                    34.22650909
                ],
                [
                    -114.99110987,
                    -108.51008008,
                    36.72650909
                ],
                [
                    -114.99110987,
                    -108.51008008,
                    39.22650909
                ],
                [
                    -114.99110987,
                    -108.51008008,
                    41.72650909
                ],
                [
                    -114.99110987,
                    -108.51008008,
                    44.22650909
                ],
                [
                    -114.99110987,
                    -108.51008008,
                    46.72650909
                ],
                [
                    -114.99110987,
                    -108.51008008,
                    49.22650909
                ],
                [
                    -114.99110987,
                    -108.51008008,
                    51.72650909
                ],
                [
                    -114.99110987,
                    -108.51008008,
                    54.22650909
                ],
                [
                    -114.99110987,
                    -108.51008008,
                    56.72650909
                ],
                [
                    -114.99110987,
                    -108.51008008,
                    59.22650909
                ],
                [
                    -114.99110987,
                    -108.51008008,
                    61.72650909
                ],
                [
                    -114.99110987,
                    -108.51008008,
                    64.22650909
                ]
            ],
            "CsaImage.TimeAfterStart": [
                0.715,
                0.4775,
                0.7225,
                0.485,
                0.73,
                0.4925,
                0.7375,
                0.5,
                0.745,
                0.5075,
                0.7525,
                0.515,
                0.76,
                0.5225,
                0.7675,
                0.53,
                0.775,
                0.5375,
                0.7825,
                0.545,
                0.79,
                0.5525,
                0.7975,
                0.56,
                0.805,
                0.5675,
                0.8125,
                0.575,
                0.82,
                0.5825,
                0.8275,
                0.59,
                0.835,
                0.5975,
                0.8425,
                0.6025,
                0.85,
                0.61,
                0.8575,
                0.6175,
                0.865,
                0.625,
                0.8725,
                0.6325,
                0.88,
                0.64,
                0.8875,
                0.6475,
                0.895,
                0.655,
                0.9025,
                0.6625,
                0.91,
                0.67,
                0.9175,
                0.6775,
                0.925,
                0.685,
                0.9325,
                0.6925,
                0.94,
                0.7,
                0.9475,
                0.7075
            ],
            "ImagePositionPatient": [
                [
                    -114.99110986956,
                    -108.51008007757,
                    -93.273490905762
                ],
                [
                    -114.99110986956,
                    -108.51008007757,
                    -90.773490905762
                ],
                [
                    -114.99110986956,
                    -108.51008007757,
                    -88.273490905762
                ],
                [
                    -114.99110986956,
                    -108.51008007757,
                    -85.773490905762
                ],
                [
                    -114.99110986956,
                    -108.51008007757,
                    -83.273490905762
                ],
                [
                    -114.99110986956,
                    -108.51008007757,
                    -80.773490905762
                ],
                [
                    -114.99110986956,
                    -108.51008007757,
                    -78.273490905762
                ],
                [
                    -114.99110986956,
                    -108.51008007757,
                    -75.773490905762
                ],
                [
                    -114.99110986956,
                    -108.51008007757,
                    -73.273490905762
                ],
                [
                    -114.99110986956,
                    -108.51008007757,
                    -70.773490905762
                ],
                [
                    -114.99110986956,
                    -108.51008007757,
                    -68.273490905762
                ],
                [
                    -114.99110986956,
                    -108.51008007757,
                    -65.773490905762
                ],
                [
                    -114.99110986956,
                    -108.51008007757,
                    -63.273490905762
                ],
                [
                    -114.99110986956,
                    -108.51008007757,
                    -60.773490905762
                ],
                [
                    -114.99110986956,
                    -108.51008007757,
                    -58.273490905762
