{
  "AcquisitionMatrixPE": 104,
  "AcquisitionNumber": 1,
  "AcquisitionTime": "13:36:50.522500",
  "BandwidthPerPixelPhaseEncode": 43.054,
  "BaseResolution": 104,
  "CoilString": "C:E1_2",
  "ConversionSoftware": "dcm2niix",
  "ConversionSoftwareVersion": "v1.0.20191031",
  "DerivedVendorReportedEchoSpacing": 0.000669999,
  "DeviceSerialNumber": "18932",
  "DwellTime": 2.8e-06,
  "EchoTime": 0.02,
  "EffectiveEchoSpacing": 0.000223333,
  "FlipAngle": 30,
  "ImageComments": "Unaliased_MB2_PE2",
  "ImageOrientationPatientDICOM": [1, 0, 0, 0, 0.975535, -0.219846],
  "ImageType": [
    "ORIGINAL",
    "PRIMARY",
    "M",
    "MB",
    "ND",
    "MOSAIC"
],
  "ImagingFrequency": 297.228,
  "InPlanePhaseEncodingDirectionDICOM": "COL",
  "InstitutionAddress": "Richmond_Street_North_1151_London_409EF2_Ontario_CA_N6A_5B7",
  "InstitutionName": "Robarts_Reserch_Institute",
  "InstitutionalDepartmentName": "Department",
  "MRAcquisitionType": "2D",
  "MagneticFieldStrength": 6.98,
  "Manufacturer": "Siemens",
  "ManufacturersModelName": "Investigational_Device_7T",
  "Modality": "MR",
  "MultibandAccelerationFactor": 2,
  "ParallelReductionFactorInPlane": 3,
  "PartialFourier": 0.875,
  "PatientPosition": "HFS",
  "PercentPhaseFOV": 100,
  "PhaseEncodingDirection": "j-",
  "PhaseEncodingSteps": 91,
  "PhaseResolution": 1,
  "PixelBandwidth": 1717,
  "ProcedureStepDescription": "Diedrichsen_SeqRep4",
  "ProtocolName": "mbep2d_bold_mb2_p3_AP_2iso",
  "PulseSequenceDetails": "%CustomerSeq%_cmrr_mbep2d_bold",
  "ReceiveCoilName": "CFMM_8Tx32Rx",
  "ReconMatrixPE": 104,
  "RefLinesPE": 36,
  "RepetitionTime": 1,
  "ScanOptions": "PFP_FS",
  "ScanningSequence": "EP",
  "SequenceName": "epfid2d1_104",
  "SequenceVariant": "SK_SS",
  "SeriesDescription": "mbep2d_bold_mb2_p3_AP_2iso",
  "SeriesNumber": 26,
  "ShimSetting": [-74, 2049, 366, 308, 96, -127, -259, -116],
  "SliceThickness": 2,
  "SliceTiming": [0, 0.2275, 0.455, 0.685, 0.9125, 0.1375, 0.365, 0.5925, 0.82, 0.045, 0.2725, 0.5025, 0.73, 0.9575, 0.1825, 0.41, 0.6375, 0.8675, 0.0925, 0.32, 0.5475, 0.775, 0, 0.2275, 0.455, 0.685, 0.9125, 0.1375, 0.365, 0.5925, 0.82, 0.045, 0.2725, 0.5025, 0.73, 0.9575, 0.1825, 0.41, 0.6375, 0.8675, 0.0925, 0.32, 0.5475, 0.775],
  "SoftwareVersions": "syngo_MR_B17",
  "SpacingBetweenSlices": 2,
  "StationName": "MASTER",
  "TaskName": "dsp",
  "TotalReadoutTime": 0.0230033,
  "TxRefAmp": 120,
  "dcmmeta_affine": [
    [-2.0, 0.0, 0.0, 105.4527816772461],
    [0.0, 1.9510691165924072, -0.4396924078464508, -102.40196990966797],
    [0.0, 0.4396924078464508, 1.9510691165924072, -65.14813232421875],
    [0.0, 0.0, 0.0, 1.0]
],
  "dcmmeta_reorient_transform": [
    [0.0, -1.0, 0.0, 103.0],
    [1.0, 0.0, 0.0, 0.0],
    [0.0, 0.0, 1.0, 0.0],
    [0.0, 0.0, 0.0, 1.0]
],
  "dcmmeta_shape": [104, 104, 44, 330],
  "dcmmeta_slice_dim": 2,
  "dcmmeta_version": 0.6,
  "global": {
    "const": {
      "AcquisitionMatrix": [104, 0, 0, 104],
      "AngioFlag": "N",
      "BitsAllocated": 16,
      "BitsStored": 12,
      "Columns": 728,
      "EchoNumbers": 1,
      "EchoTime": 20.0,
      "EchoTrainLength": 1,
      "FlipAngle": 30.0,
      "HighBit": 11,
      "ImageOrientationPatient": [1.0, 0.0, 0.0, 0.0, 0.97553454431481, -0.2198462027157],
      "ImagePositionPatient": [-729.45278453827, -707.29169876777, 117.32421584434],
      "ImageType": [
        "ORIGINAL",
        "PRIMARY",
        "M",
        "MB",
        "ND",
        "MOSAIC"
],
      "ImagedNucleus": "1H",
      "ImagingFrequency": 297.228101,
      "InPlanePhaseEncodingDirection": "COL",
      "MRAcquisitionType": "2D",
      "MagneticFieldStrength": 6.98,
      "Manufacturer": "SIEMENS",
      "ManufacturerModelName": "Investigational_Device_7T",
      "Modality": "MR",
      "NumberOfAverages": 1.0,
      "NumberOfPhaseEncodingSteps": 91,
      "PercentPhaseFieldOfView": 100.0,
      "PercentSampling": 100.0,
      "PerformedProcedureStepStartTime": "124150.406000",
      "PhotometricInterpretation": "MONOCHROME2",
      "PixelBandwidth": 1717.0,
      "PixelRepresentation": 0,
      "PixelSpacing": [2.0, 2.0],
      "ProtocolName": "mbep2d_bold_mb2_p3_AP 2iso",
      "RepetitionTime": 1000.0,
      "Rows": 728,
      "SAR": 0.0,
      "SamplesPerPixel": 1,
      "ScanOptions": [
        "PFP",
        "FS"
],
      "ScanningSequence": "EP",
      "SequenceName": "epfid2d1_104",
      "SequenceVariant": [
        "SK",
        "SS"
],
      "SeriesDescription": "mbep2d_bold_mb2_p3_AP 2iso",
      "SeriesNumber": 26,
      "SeriesTime": "133724.171000",
      "SliceLocation": -41.041568745608,
      "SliceThickness": 2.0,
      "SmallestImagePixelValue": 0,
      "SoftwareVersions": "syngo MR B17",
      "SpacingBetweenSlices": 1.9999999733392,
      "SpecificCharacterSet": "ISO_IR 100",
      "StudyID": "1",
      "StudyTime": "124150.343000",
      "TransmitCoilName": "CFMM_8Tx32Rx",
      "VariableFlipAngleFlag": "N",
      "WindowCenterWidthExplanation": "Algo1",
      "dBdt": 0.0},
    "slices": {}
  },
  "time": {
    "samples": {
      "AcquisitionNumber": [1, 2, 3, 4, 5, 6, 7, 8, 9, 10, 11, 12, 13, 14, 15, 16, 17, 18, 19, 20, 21, 22, 23, 24, 25, 26, 27, 28, 29, 30, 31, 32, 33, 34, 35, 36, 37, 38, 39, 40, 41, 42, 43, 44, 45, 46, 47, 48, 49, 50, 51, 52, 53, 54, 55, 56, 57, 58, 59, 60, 61, 62, 63, 64, 65, 66, 67, 68, 69, 70, 71, 72, 73, 74, 75, 76, 77, 78, 79, 80, 81, 82, 83, 84, 85, 86, 87, 88, 89, 90, 91, 92, 93, 94, 95, 96, 97, 98, 99, 100, 101, 102, 103, 104, 105, 106, 107, 108, 109, 110, 111, 112, 113, 114, 115, 116, 117, 118, 119, 120, 121, 122, 123, 124, 125, 126, 127, 128, 129, 130, 131, 132, 133, 134, 135, 136, 137, 138, 139, 140, 141, 142, 143, 144, 145, 146, 147, 148, 149, 150, 151, 152, 153, 154, 155, 156, 157, 158, 159, 160, 161, 162, 163, 164, 165, 166, 167, 168, 169, 170, 171, 172, 173, 174, 175, 176, 177, 178, 179, 180, 181, 182, 183, 184, 185, 186, 187, 188, 189, 190, 191, 192, 193, 194, 195, 196, 197, 198, 199, 200, 201, 202, 203, 204, 205, 206, 207, 208, 209, 210, 211, 212, 213, 214, 215, 216, 217, 218, 219, 220, 221, 222, 223, 224, 225, 226, 227, 228, 229, 230, 231, 232, 233, 234, 235, 236, 237, 238, 239, 240, 241, 242, 243, 244, 245, 246, 247, 248, 249, 250, 251, 252, 253, 254, 255, 256, 257, 258, 259, 260, 261, 262, 263, 264, 265, 266, 267, 268, 269, 270, 271, 272, 273, 274, 275, 276, 277, 278, 279, 280, 281, 282, 283, 284, 285, 286, 287, 288, 289, 290, 291, 292, 293, 294, 295, 296, 297, 298, 299, 300, 301, 302, 303, 304, 305, 306, 307, 308, 309, 310, 311, 312, 313, 314, 315, 316, 317, 318, 319, 320, 321, 322, 323, 324, 325, 326, 327, 328, 329, 330],
      "AcquisitionTime": ["133650.522500", "133651.527500", "133652.530000", "133653.535000", "133654.537500", "133655.542500", "133656.547500", "133657.550000", "133658.555000", "133659.557500", "133700.562500", "133701.567500", "133702.570000", "133703.575000", "133704.580000", "133705.582500", "133706.587500", "133707.590000", "133708.595000", "133709.600000", "133710.602500", "133711.607500", "133712.610000", "133713.615000", "133714.620000", "133715.622500", "133716.627500", "133717.630000", "133718.635000", "133719.640000", "133720.642500", "133721.647500", "133722.650000", "133723.655000", "133724.660000", "133725.662500", "133726.667500", "133727.670000", "133728.675000", "133729.680000", "133730.682500", "133731.687500", "133732.690000", "133733.695000", "133734.700000", "133735.702500", "133736.707500", "133737.712500", "133738.715000", "133739.720000", "133740.722500", "133741.727500", "133742.732500", "133743.735000", "133744.740000", "133745.742500", "133746.747500", "133747.752500", "133748.755000", "133749.760000", "133750.762500", "133751.767500", "133752.772500", "133753.775000", "133754.780000", "133755.782500", "133756.787500", "133757.792500", "133758.795000", "133759.800000", "133800.802500", "133801.807500", "133802.812500", "133803.815000", "133804.820000", "133805.822500", "133806.827500", "133807.832500", "133808.835000", "133809.840000", "133810.845000", "133811.847500", "133812.852500", "133813.855000", "133814.860000", "133815.865000", "133816.867500", "133817.872500", "133818.875000", "133819.880000", "133820.885000", "133821.887500", "133822.892500", "133823.895000", "133824.900000", "133825.905000", "133826.907500", "133827.912500", "133828.915000", "133829.920000", "133830.925000", "133831.927500", "133832.932500", "133833.935000", "133834.940000", "133835.945000", "133836.947500", "133837.952500", "133838.957500", "133839.960000", "133840.965000", "133841.967500", "133842.972500", "133843.977500", "133844.980000", "133845.985000", "133846.987500", "133847.992500", "133848.997500", "133850.000000", "133851.005000", "133852.007500", "133853.012500", "133854.017500", "133855.020000", "133856.025000", "133857.027500", "133858.032500", "133859.037500", "133900.040000", "133901.045000", "133902.047500", "133903.052500", "133904.057500", "133905.060000", "133906.065000", "133907.067500", "133908.072500", "133909.077500", "133910.080000", "133911.085000", "133912.090000", "133913.092500", "133914.097500", "133915.100000", "133916.105000", "133917.110000", "133918.112500", "133919.117500", "133920.120000", "133921.125000", "133922.130000", "133923.132500", "133924.137500", "133925.140000", "133926.145000", "133927.150000", "133928.152500", "133929.157500", "133930.160000", "133931.165000", "133932.170000", "133933.172500", "133934.177500", "133935.180000", "133936.185000", "133937.190000", "133938.192500", "133939.197500", "133940.200000", "133941.205000", "133942.210000", "133943.212500", "133944.217500", "133945.222500", "133946.225000", "133947.230000", "133948.232500", "133949.237500", "133950.242500", "133951.245000", "133952.250000", "133953.252500", "133954.257500", "133955.262500", "133956.265000", "133957.270000", "133958.272500", "133959.277500", "134000.282500", "134001.285000", "134002.290000", "134003.292500", "134004.297500", "134005.302500", "134006.305000", "134007.310000", "134008.312500", "134009.317500", "134010.322500", "134011.325000", "134012.330000", "134013.335000", "134014.337500", "134015.342500", "134016.345000", "134017.350000", "134018.355000", "134019.357500", "134020.362500", "134021.365000", "134022.370000", "134023.375000", "134024.377500", "134025.382500", "134026.385000", "134027.390000", "134028.395000", "134029.397500", "134030.402500", "134031.405000", "134032.410000", "134033.415000", "134034.417500", "134035.422500", "134036.425000", "134037.430000", "134038.435000", "134039.437500", "134040.442500", "134041.445000", "134042.450000", "134043.455000", "134044.457500", "134045.462500", "134046.467500", "134047.470000", "134048.475000", "134049.477500", "134050.482500", "134051.487500", "134052.490000", "134053.495000", "134054.497500", "134055.502500", "134056.507500", "134057.510000", "134058.515000", "134059.517500", "134100.522500", "134101.527500", "134102.530000", "134103.535000", "134104.537500", "134105.542500", "134106.547500", "134107.550000", "134108.555000", "134109.557500", "134110.562500", "134111.567500", "134112.570000", "134113.575000", "134114.580000", "134115.582500", "134116.587500", "134117.590000", "134118.595000", "134119.600000", "134120.602500", "134121.607500", "134122.610000", "134123.615000", "134124.620000", "134125.622500", "134126.627500", "134127.630000", "134128.635000", "134129.640000", "134130.642500", "134131.647500", "134132.650000", "134133.655000", "134134.660000", "134135.662500", "134136.667500", "134137.670000", "134138.675000", "134139.680000", "134140.682500", "134141.687500", "134142.690000", "134143.695000", "134144.700000", "134145.702500", "134146.707500", "134147.712500", "134148.715000", "134149.720000", "134150.722500", "134151.727500", "134152.732500", "134153.735000", "134154.740000", "134155.742500", "134156.747500", "134157.752500", "134158.755000", "134159.760000", "134200.762500", "134201.767500", "134202.772500", "134203.775000", "134204.780000", "134205.782500", "134206.787500", "134207.792500", "134208.795000", "134209.800000", "134210.802500", "134211.807500", "134212.812500", "134213.815000", "134214.820000", "134215.822500", "134216.827500", "134217.832500", "134218.835000", "134219.840000", "134220.845000"],
      "ContentTime": ["133724.171000", "133724.171000", "133724.171000", "133724.171000", "133724.187000", "133724.187000", "133724.187000", "133724.187000", "133724.187000", "133724.187000", "133724.187000", "133724.187000", "133724.203000", "133724.203000", "133724.203000", "133724.203000", "133724.203000", "133724.218000", "133724.218000", "133724.218000", "133724.218000", "133724.218000", "133724.218000", "133724.218000", "133724.234000", "133724.234000", "133724.234000", "133724.234000", "133724.234000", "133724.234000", "133724.250000", "133724.250000", "133744.140000", "133744.140000", "133744.140000", "133744.140000", "133744.156000", "133744.156000", "133744.156000", "133744.156000", "133744.156000", "133744.171000", "133744.171000", "133744.171000", "133744.171000", "133744.187000", "133744.187000", "133744.187000", "133744.187000", "133744.187000", "133744.187000", "133744.187000", "133804.140000", "133804.140000", "133804.140000", "133804.140000", "133804.140000", "133804.140000", "133804.156000", "133804.156000", "133804.156000", "133804.156000", "133804.156000", "133804.156000", "133804.156000", "133804.171000", "133804.171000", "133804.171000", "133804.171000", "133804.171000", "133804.171000", "133804.171000", "133824.140000", "133824.140000", "133824.140000", "133824.140000", "133824.140000", "133824.140000", "133824.156000", "133824.156000", "133824.156000", "133824.156000", "133824.156000", "133824.156000", "133824.156000", "133824.171000", "133824.171000", "133824.171000", "133824.171000", "133824.171000", "133824.171000", "133824.171000", "133844.140000", "133844.140000", "133844.140000", "133844.140000", "133844.140000", "133844.140000", "133844.156000", "133844.156000", "133844.156000", "133844.156000", "133844.156000", "133844.156000", "133844.156000", "133844.171000", "133844.171000", "133844.171000", "133844.171000", "133844.171000", "133844.171000", "133844.171000", "133904.140000", "133904.140000", "133904.140000", "133904.140000", "133904.140000", "133904.156000", "133904.156000", "133904.156000", "133904.156000", "133904.156000", "133904.156000", "133904.156000", "133904.156000", "133904.171000", "133904.171000", "133904.171000", "133904.171000", "133904.171000", "133904.171000", "133904.171000", "133924.140000", "133924.140000", "133924.140000", "133924.140000", "133924.140000", "133924.156000", "133924.156000", "133924.156000", "133924.156000", "133924.156000", "133924.156000", "133924.171000", "133924.171000", "133924.171000", "133924.171000", "133924.171000", "133924.171000", "133924.171000", "133924.171000", "133924.187000", "133944.140000", "133944.140000", "133944.140000", "133944.140000", "133944.140000", "133944.140000", "133944.156000", "133944.156000", "133944.156000", "133944.156000", "133944.156000", "133944.156000", "133944.156000", "133944.171000", "133944.171000", "133944.171000", "133944.171000", "133944.171000", "133944.171000", "133944.171000", "134004.140000", "134004.140000", "134004.140000", "134004.140000", "134004.140000", "134004.156000", "134004.156000", "134004.156000", "134004.156000", "134004.156000", "134004.156000", "134004.156000", "134004.171000", "134004.171000", "134004.171000", "134004.171000", "134004.171000", "134004.171000", "134004.171000", "134004.171000", "134024.140000", "134024.140000", "134024.140000", "134024.140000", "134024.140000", "134024.140000", "134024.156000", "134024.156000", "134024.156000", "134024.156000", "134024.156000", "134024.156000", "134024.156000", "134024.171000", "134024.171000", "134024.171000", "134024.171000", "134024.171000", "134024.171000", "134024.171000", "134044.140000", "134044.140000", "134044.140000", "134044.140000", "134044.140000", "134044.140000", "134044.156000", "134044.156000", "134044.156000", "134044.156000", "134044.156000", "134044.156000", "134044.156000", "134044.171000", "134044.171000", "134044.171000", "134044.171000", "134044.171000", "134044.171000", "134044.171000", "134104.140000", "134104.140000", "134104.140000", "134104.140000", "134104.140000", "134104.140000", "134104.156000", "134104.156000", "134104.156000", "134104.156000", "134104.156000", "134104.171000", "134104.171000", "134104.171000", "134104.171000", "134104.171000", "134104.171000", "134104.171000", "134104.171000", "134104.187000", "134124.140000", "134124.140000", "134124.140000", "134124.140000", "134124.140000", "134124.156000", "134124.156000", "134124.156000", "134124.156000", "134124.171000", "134124.171000", "134124.171000", "134124.171000", "134124.171000", "134124.171000", "134124.171000", "134124.171000", "134124.187000", "134124.187000", "134124.187000", "134144.140000", "134144.140000", "134144.140000", "134144.140000", "134144.140000", "134144.140000", "134144.156000", "134144.156000", "134144.156000", "134144.171000", "134144.171000", "134144.171000", "134144.171000", "134144.171000", "134144.171000", "134144.171000", "134144.187000", "134144.187000", "134144.187000", "134144.187000", "134204.140000", "134204.140000", "134204.140000", "134204.140000", "134204.140000", "134204.140000", "134204.156000", "134204.156000", "134204.156000", "134204.156000", "134204.156000", "134204.156000", "134204.171000", "134204.171000", "134204.171000", "134204.171000", "134204.171000", "134204.171000", "134204.171000", "134204.187000", "134226.781000", "134226.781000", "134226.781000", "134226.796000", "134226.796000", "134226.796000", "134226.796000", "134226.796000", "134226.796000", "134226.796000", "134226.796000", "134226.812000", "134226.812000", "134226.812000", "134226.812000", "134226.812000", "134226.812000", "134226.812000"],
      "InstanceCreationTime": ["133724.171000", "133724.171000", "133724.171000", "133724.171000", "133724.187000", "133724.187000", "133724.187000", "133724.187000", "133724.187000", "133724.187000", "133724.187000", "133724.187000", "133724.203000", "133724.203000", "133724.203000", "133724.203000", "133724.203000", "133724.218000", "133724.218000", "133724.218000", "133724.218000", "133724.218000", "133724.218000", "133724.218000", "133724.234000", "133724.234000", "133724.234000", "133724.234000", "133724.234000", "133724.234000", "133724.250000", "133724.250000", "133744.140000", "133744.140000", "133744.140000", "133744.140000", "133744.156000", "133744.156000", "133744.156000", "133744.156000", "133744.156000", "133744.171000", "133744.171000", "133744.171000", "133744.171000", "133744.187000", "133744.187000", "133744.187000", "133744.187000", "133744.187000", "133744.187000", "133744.187000", "133804.140000", "133804.140000", "133804.140000", "133804.140000", "133804.140000", "133804.140000", "133804.156000", "133804.156000", "133804.156000", "133804.156000", "133804.156000", "133804.156000", "133804.156000", "133804.171000", "133804.171000", "133804.171000", "133804.171000", "133804.171000", "133804.171000", "133804.171000", "133824.140000", "133824.140000", "133824.140000", "133824.140000", "133824.140000", "133824.140000", "133824.156000", "133824.156000", "133824.156000", "133824.156000", "133824.156000", "133824.156000", "133824.156000", "133824.171000", "133824.171000", "133824.171000", "133824.171000", "133824.171000", "133824.171000", "133824.171000", "133844.140000", "133844.140000", "133844.140000", "133844.140000", "133844.140000", "133844.140000", "133844.156000", "133844.156000", "133844.156000", "133844.156000", "133844.156000", "133844.156000", "133844.156000", "133844.171000", "133844.171000", "133844.171000", "133844.171000", "133844.171000", "133844.171000", "133844.171000", "133904.140000", "133904.140000", "133904.140000", "133904.140000", "133904.140000", "133904.156000", "133904.156000", "133904.156000", "133904.156000", "133904.156000", "133904.156000", "133904.156000", "133904.156000", "133904.171000", "133904.171000", "133904.171000", "133904.171000", "133904.171000", "133904.171000", "133904.171000", "133924.140000", "133924.140000", "133924.140000", "133924.140000", "133924.140000", "133924.156000", "133924.156000", "133924.156000", "133924.156000", "133924.156000", "133924.156000", "133924.171000", "133924.171000", "133924.171000", "133924.171000", "133924.171000", "133924.171000", "133924.171000", "133924.171000", "133924.187000", "133944.140000", "133944.140000", "133944.140000", "133944.140000", "133944.140000", "133944.140000", "133944.156000", "133944.156000", "133944.156000", "133944.156000", "133944.156000", "133944.156000", "133944.156000", "133944.171000", "133944.171000", "133944.171000", "133944.171000", "133944.171000", "133944.171000", "133944.171000", "134004.140000", "134004.140000", "134004.140000", "134004.140000", "134004.140000", "134004.156000", "134004.156000", "134004.156000", "134004.156000", "134004.156000", "134004.156000", "134004.156000", "134004.171000", "134004.171000", "134004.171000", "134004.171000", "134004.171000", "134004.171000", "134004.171000", "134004.171000", "134024.140000", "134024.140000", "134024.140000", "134024.140000", "134024.140000", "134024.140000", "134024.156000", "134024.156000", "134024.156000", "134024.156000", "134024.156000", "134024.156000", "134024.156000", "134024.171000", "134024.171000", "134024.171000", "134024.171000", "134024.171000", "134024.171000", "134024.171000", "134044.140000", "134044.140000", "134044.140000", "134044.140000", "134044.140000", "134044.140000", "134044.156000", "134044.156000", "134044.156000", "134044.156000", "134044.156000", "134044.156000", "134044.156000", "134044.171000", "134044.171000", "134044.171000", "134044.171000", "134044.171000", "134044.171000", "134044.171000", "134104.140000", "134104.140000", "134104.140000", "134104.140000", "134104.140000", "134104.140000", "134104.156000", "134104.156000", "134104.156000", "134104.156000", "134104.156000", "134104.171000", "134104.171000", "134104.171000", "134104.171000", "134104.171000", "134104.171000", "134104.171000", "134104.171000", "134104.187000", "134124.140000", "134124.140000", "134124.140000", "134124.140000", "134124.140000", "134124.156000", "134124.156000", "134124.156000", "134124.156000", "134124.171000", "134124.171000", "134124.171000", "134124.171000", "134124.171000", "134124.171000", "134124.171000", "134124.171000", "134124.187000", "134124.187000", "134124.187000", "134144.140000", "134144.140000", "134144.140000", "134144.140000", "134144.140000", "134144.140000", "134144.156000", "134144.156000", "134144.156000", "134144.171000", "134144.171000", "134144.171000", "134144.171000", "134144.171000", "134144.171000", "134144.171000", "134144.187000", "134144.187000", "134144.187000", "134144.187000", "134204.140000", "134204.140000", "134204.140000", "134204.140000", "134204.140000", "134204.140000", "134204.156000", "134204.156000", "134204.156000", "134204.156000", "134204.156000", "134204.156000", "134204.171000", "134204.171000", "134204.171000", "134204.171000", "134204.171000", "134204.171000", "134204.171000", "134204.187000", "134226.781000", "134226.781000", "134226.781000", "134226.796000", "134226.796000", "134226.796000", "134226.796000", "134226.796000", "134226.796000", "134226.796000", "134226.796000", "134226.812000", "134226.812000", "134226.812000", "134226.812000", "134226.812000", "134226.812000", "134226.812000"],
      "InstanceNumber": [1, 2, 3, 4, 5, 6, 7, 8, 9, 10, 11, 12, 13, 14, 15, 16, 17, 18, 19, 20, 21, 22, 23, 24, 25, 26, 27, 28, 29, 30, 31, 32, 33, 34, 35, 36, 37, 38, 39, 40, 41, 42, 43, 44, 45, 46, 47, 48, 49, 50, 51, 52, 53, 54, 55, 56, 57, 58, 59, 60, 61, 62, 63, 64, 65, 66, 67, 68, 69, 70, 71, 72, 73, 74, 75, 76, 77, 78, 79, 80, 81, 82, 83, 84, 85, 86, 87, 88, 89, 90, 91, 92, 93, 94, 95, 96, 97, 98, 99, 100, 101, 102, 103, 104, 105, 106, 107, 108, 109, 110, 111, 112, 113, 114, 115, 116, 117, 118, 119, 120, 121, 122, 123, 124, 125, 126, 127, 128, 129, 130, 131, 132, 133, 134, 135, 136, 137, 138, 139, 140, 141, 142, 143, 144, 145, 146, 147, 148, 149, 150, 151, 152, 153, 154, 155, 156, 157, 158, 159, 160, 161, 162, 163, 164, 165, 166, 167, 168, 169, 170, 171, 172, 173, 174, 175, 176, 177, 178, 179, 180, 181, 182, 183, 184, 185, 186, 187, 188, 189, 190, 191, 192, 193, 194, 195, 196, 197, 198, 199, 200, 201, 202, 203, 204, 205, 206, 207, 208, 209, 210, 211, 212, 213, 214, 215, 216, 217, 218, 219, 220, 221, 222, 223, 224, 225, 226, 227, 228, 229, 230, 231, 232, 233, 234, 235, 236, 237, 238, 239, 240, 241, 242, 243, 244, 245, 246, 247, 248, 249, 250, 251, 252, 253, 254, 255, 256, 257, 258, 259, 260, 261, 262, 263, 264, 265, 266, 267, 268, 269, 270, 271, 272, 273, 274, 275, 276, 277, 278, 279, 280, 281, 282, 283, 284, 285, 286, 287, 288, 289, 290, 291, 292, 293, 294, 295, 296, 297, 298, 299, 300, 301, 302, 303, 304, 305, 306, 307, 308, 309, 310, 311, 312, 313, 314, 315, 316, 317, 318, 319, 320, 321, 322, 323, 324, 325, 326, 327, 328, 329, 330],
      "LargestImagePixelValue": [1569, 1510, 1527, 1527, 1534, 1515, 1522, 1531, 1507, 1518, 1507, 1530, 1604, 1500, 1503, 1537, 1521, 1580, 1506, 1572, 1609, 1553, 1585, 1580, 1547, 1561, 1524, 1618, 1561, 1566, 1618, 1568, 1677, 1619, 1648, 1555, 1601, 1609, 1626, 1611, 1538, 1620, 1554, 1604, 1651, 1568, 1603, 1595, 1615, 1557, 1624, 1665, 1558, 1642, 1575, 1643, 1584, 1512, 1557, 1550, 1522, 1584, 1560, 1529, 1525, 1572, 1515, 1602, 1671, 1563, 1583, 1534, 1554, 1542, 1631, 1563, 1622, 1600, 1630, 1565, 1579, 1657, 1596, 1605, 1635, 1543, 1622, 1584, 1573, 1549, 1597, 1599, 1588, 1660, 1619, 1549, 1607, 1616, 1644, 1647, 1600, 1605, 1613, 1650, 1564, 1648, 1571, 1616, 1739, 1609, 1622, 1606, 1684, 1613, 1614, 1638, 1585, 1600, 1678, 1561, 1592, 1665, 1578, 1575, 1714, 1647, 1647, 1699, 1620, 1646, 1586, 1660, 1634, 1536, 1603, 1552, 1643, 1627, 1698, 1575, 1493, 1590, 1589, 1633, 1551, 1573, 1578, 1621, 1663, 1580, 1602, 1617, 1607, 1688, 1598, 1613, 1595, 1694, 1577, 1609, 1599, 1577, 1617, 1591, 1561, 1622, 1604, 1652, 1650, 1636, 1553, 1665, 1564, 1595, 1557, 1520, 1556, 1580, 1664, 1589, 1603, 1645, 1628, 1741, 1591, 1607, 1641, 1673, 1596, 1554, 1674, 1576, 1590, 1676, 1564, 1602, 1665, 1639, 1672, 1601, 1701, 1607, 1659, 1592, 1617, 1592, 1649, 1578, 1679, 1699, 1613, 1653, 1628, 1668, 1596, 1626, 1582, 1655, 1675, 1598, 1642, 1560, 1598, 1560, 1570, 1570, 1583, 1644, 1627, 1585, 1619, 1604, 1600, 1631, 1598, 1545, 1632, 1595, 1647, 1526, 1612, 1587, 1654, 1633, 1607, 1562, 1631, 1662, 1630, 1577, 1618, 1633, 1597, 1643, 1620, 1515, 1674, 1620, 1681, 1625, 1600, 1623, 1635, 1659, 1670, 1646, 1603, 1624, 1721, 1571, 1612, 1632, 1603, 1565, 1528, 1534, 1532, 1580, 1634, 1565, 1615, 1595, 1692, 1623, 1669, 1625, 1551, 1638, 1661, 1709, 1679, 1686, 1616, 1577, 1616, 1661, 1629, 1643, 1707, 1682, 1664, 1622, 1668, 1685, 1635, 1689, 1631, 1681, 1680, 1605, 1649, 1636, 1671, 1652, 1563, 1621, 1602, 1582, 1620, 1647, 1558, 1592, 1649, 1619, 1691, 1558, 1619, 1673, 1612, 1667],
      "WindowCenter": [347.0, 346.0, 345.0, 344.0, 344.0, 343.0, 343.0, 345.0, 345.0, 346.0, 345.0, 344.0, 344.0, 344.0, 345.0, 345.0, 344.0, 346.0, 345.0, 346.0, 346.0, 344.0, 344.0, 343.0, 343.0, 344.0, 345.0, 346.0, 346.0, 346.0, 347.0, 346.0, 346.0, 346.0, 346.0, 345.0, 345.0, 346.0, 346.0, 345.0, 344.0, 345.0, 345.0, 346.0, 345.0, 343.0, 343.0, 344.0, 345.0, 345.0, 346.0, 347.0, 346.0, 346.0, 345.0, 346.0, 345.0, 345.0, 346.0, 346.0, 345.0, 344.0, 344.0, 344.0, 344.0, 346.0, 346.0, 347.0, 347.0, 347.0, 347.0, 346.0, 347.0, 346.0, 346.0, 345.0, 346.0, 345.0, 345.0, 345.0, 345.0, 346.0, 344.0, 344.0, 344.0, 343.0, 345.0, 345.0, 345.0, 345.0, 344.0, 344.0, 345.0, 346.0, 345.0, 345.0, 347.0, 347.0, 347.0, 347.0, 345.0, 345.0, 345.0, 346.0, 346.0, 347.0, 347.0, 348.0, 348.0, 347.0, 347.0, 346.0, 346.0, 346.0, 347.0, 347.0, 346.0, 345.0, 346.0, 344.0, 344.0, 344.0, 343.0, 344.0, 345.0, 345.0, 346.0, 347.0, 346.0, 346.0, 344.0, 343.0, 343.0, 343.0, 343.0, 343.0, 344.0, 345.0, 346.0, 346.0, 345.0, 347.0, 347.0, 347.0, 347.0, 347.0, 348.0, 348.0, 348.0, 348.0, 347.0, 346.0, 345.0, 345.0, 344.0, 344.0, 344.0, 345.0, 344.0, 346.0, 345.0, 345.0, 345.0, 344.0, 344.0, 345.0, 345.0, 346.0, 346.0, 346.0, 345.0, 346.0, 344.0, 345.0, 345.0, 345.0, 346.0, 346.0, 347.0, 346.0, 345.0, 345.0, 345.0, 346.0, 346.0, 346.0, 347.0, 347.0, 346.0, 344.0, 345.0, 344.0, 344.0, 346.0, 344.0, 344.0, 345.0, 344.0, 344.0, 344.0, 345.0, 344.0, 345.0, 344.0, 345.0, 345.0, 346.0, 346.0, 347.0, 347.0, 347.0, 347.0, 345.0, 346.0, 345.0, 345.0, 344.0, 345.0, 345.0, 344.0, 345.0, 345.0, 345.0, 344.0, 344.0, 344.0, 344.0, 345.0, 345.0, 344.0, 345.0, 344.0, 344.0, 345.0, 345.0, 344.0, 345.0, 345.0, 345.0, 345.0, 346.0, 345.0, 346.0, 346.0, 345.0, 345.0, 347.0, 347.0, 346.0, 344.0, 345.0, 346.0, 345.0, 346.0, 347.0, 346.0, 347.0, 346.0, 346.0, 345.0, 344.0, 345.0, 345.0, 346.0, 345.0, 345.0, 344.0, 344.0, 345.0, 344.0, 345.0, 344.0, 343.0, 344.0, 344.0, 344.0, 344.0, 344.0, 345.0, 344.0, 345.0, 345.0, 346.0, 346.0, 347.0, 348.0, 348.0, 348.0, 347.0, 347.0, 346.0, 346.0, 346.0, 345.0, 345.0, 345.0, 345.0, 345.0, 345.0, 345.0, 344.0, 343.0, 345.0, 346.0, 346.0, 347.0, 347.0, 346.0, 346.0, 345.0, 346.0, 345.0, 346.0, 347.0, 347.0, 347.0, 346.0, 345.0, 344.0, 344.0, 343.0, 345.0, 346.0, 346.0, 347.0, 346.0, 346.0, 346.0, 344.0, 345.0],
