{
  "AcquisitionMatrixPE": 104,
  "AcquisitionNumber": 1,
  "AcquisitionTime": "13:49:46.447500",
  "BandwidthPerPixelPhaseEncode": 43.054,
  "BaseResolution": 104,
  "CoilString": "C:E1_2",
  "ConversionSoftware": "dcm2niix",
  "ConversionSoftwareVersion": "v1.0.20191031",
  "DerivedVendorReportedEchoSpacing": 0.000669999,
  "DeviceSerialNumber": "18932",
  "DwellTime": 2.8e-06,
  "EchoTime": 0.02,
  "EffectiveEchoSpacing": 0.000223333,
  "FlipAngle": 30,
  "ImageComments": "Unaliased_MB2_PE2",
  "ImageOrientationPatientDICOM": [1, 0, 0, 0, 0.975535, -0.219846],
  "ImageType": [
    "ORIGINAL",
    "PRIMARY",
    "M",
    "MB",
    "ND",
    "MOSAIC"
],
  "ImagingFrequency": 297.228,
  "InPlanePhaseEncodingDirectionDICOM": "COL",
  "InstitutionAddress": "Richmond_Street_North_1151_London_409EF2_Ontario_CA_N6A_5B7",
  "InstitutionName": "Robarts_Reserch_Institute",
  "InstitutionalDepartmentName": "Department",
  "MRAcquisitionType": "2D",
  "MagneticFieldStrength": 6.98,
  "Manufacturer": "Siemens",
  "ManufacturersModelName": "Investigational_Device_7T",
  "Modality": "MR",
  "MultibandAccelerationFactor": 2,
  "ParallelReductionFactorInPlane": 3,
  "PartialFourier": 0.875,
  "PatientPosition": "HFS",
  "PercentPhaseFOV": 100,
  "PhaseEncodingDirection": "j-",
  "PhaseEncodingSteps": 91,
  "PhaseResolution": 1,
  "PixelBandwidth": 1717,
  "ProcedureStepDescription": "Diedrichsen_SeqRep4",
  "ProtocolName": "mbep2d_bold_mb2_p3_AP_2iso",
  "PulseSequenceDetails": "%CustomerSeq%_cmrr_mbep2d_bold",
  "ReceiveCoilName": "CFMM_8Tx32Rx",
  "ReconMatrixPE": 104,
  "RefLinesPE": 36,
  "RepetitionTime": 1,
  "ScanOptions": "PFP_FS",
  "ScanningSequence": "EP",
  "SequenceName": "epfid2d1_104",
  "SequenceVariant": "SK_SS",
  "SeriesDescription": "mbep2d_bold_mb2_p3_AP_2iso",
  "SeriesNumber": 30,
  "ShimSetting": [-74, 2049, 366, 308, 96, -127, -259, -116],
  "SliceThickness": 2,
  "SliceTiming": [0, 0.2275, 0.455, 0.6825, 0.9125, 0.135, 0.365, 0.5925, 0.82, 0.045, 0.2725, 0.5, 0.73, 0.9575, 0.1825, 0.41, 0.6375, 0.865, 0.09, 0.3175, 0.5475, 0.775, 0, 0.2275, 0.455, 0.6825, 0.9125, 0.135, 0.365, 0.5925, 0.82, 0.045, 0.2725, 0.5, 0.73, 0.9575, 0.1825, 0.41, 0.6375, 0.865, 0.09, 0.3175, 0.5475, 0.775],
  "SoftwareVersions": "syngo_MR_B17",
  "SpacingBetweenSlices": 2,
  "StationName": "MASTER",
  "TaskName": "dsp",
  "TotalReadoutTime": 0.0230033,
  "TxRefAmp": 120,
  "dcmmeta_affine": [
    [-2.0, 0.0, 0.0, 105.4527816772461],
    [0.0, 1.9510691165924072, -0.4396924078464508, -102.40196990966797],
    [0.0, 0.4396924078464508, 1.9510691165924072, -65.14813232421875],
    [0.0, 0.0, 0.0, 1.0]
],
  "dcmmeta_reorient_transform": [
    [0.0, -1.0, 0.0, 103.0],
    [1.0, 0.0, 0.0, 0.0],
    [0.0, 0.0, 1.0, 0.0],
    [0.0, 0.0, 0.0, 1.0]
],
  "dcmmeta_shape": [104, 104, 44, 330],
  "dcmmeta_slice_dim": 2,
  "dcmmeta_version": 0.6,
  "global": {
    "const": {
      "AcquisitionMatrix": [104, 0, 0, 104],
      "AngioFlag": "N",
      "BitsAllocated": 16,
      "BitsStored": 12,
      "Columns": 728,
      "EchoNumbers": 1,
      "EchoTime": 20.0,
      "EchoTrainLength": 1,
      "FlipAngle": 30.0,
      "HighBit": 11,
      "ImageOrientationPatient": [1.0, 0.0, 0.0, 0.0, 0.97553454431481, -0.2198462027157],
      "ImagePositionPatient": [-729.45278453827, -707.29169876777, 117.32421584434],
      "ImageType": [
        "ORIGINAL",
        "PRIMARY",
        "M",
        "MB",
        "ND",
        "MOSAIC"
],
      "ImagedNucleus": "1H",
      "ImagingFrequency": 297.228113,
      "InPlanePhaseEncodingDirection": "COL",
      "MRAcquisitionType": "2D",
      "MagneticFieldStrength": 6.98,
      "Manufacturer": "SIEMENS",
      "ManufacturerModelName": "Investigational_Device_7T",
      "Modality": "MR",
      "NumberOfAverages": 1.0,
      "NumberOfPhaseEncodingSteps": 91,
      "PercentPhaseFieldOfView": 100.0,
      "PercentSampling": 100.0,
      "PerformedProcedureStepStartTime": "124150.406000",
      "PhotometricInterpretation": "MONOCHROME2",
      "PixelBandwidth": 1717.0,
      "PixelRepresentation": 0,
      "PixelSpacing": [2.0, 2.0],
      "ProtocolName": "mbep2d_bold_mb2_p3_AP 2iso",
      "RepetitionTime": 1000.0,
      "Rows": 728,
      "SAR": 0.0,
      "SamplesPerPixel": 1,
      "ScanOptions": [
        "PFP",
        "FS"
],
      "ScanningSequence": "EP",
      "SequenceName": "epfid2d1_104",
      "SequenceVariant": [
        "SK",
        "SS"
],
      "SeriesDescription": "mbep2d_bold_mb2_p3_AP 2iso",
      "SeriesNumber": 30,
      "SeriesTime": "135016.578000",
      "SliceLocation": -41.041568745608,
      "SliceThickness": 2.0,
      "SmallestImagePixelValue": 0,
      "SoftwareVersions": "syngo MR B17",
      "SpacingBetweenSlices": 1.9999999733392,
      "SpecificCharacterSet": "ISO_IR 100",
      "StudyID": "1",
      "StudyTime": "124150.343000",
      "TransmitCoilName": "CFMM_8Tx32Rx",
      "VariableFlipAngleFlag": "N",
      "WindowCenterWidthExplanation": "Algo1",
      "dBdt": 0.0},
    "slices": {}
  },
  "time": {
    "samples": {
      "AcquisitionNumber": [1, 2, 3, 4, 5, 6, 7, 8, 9, 10, 11, 12, 13, 14, 15, 16, 17, 18, 19, 20, 21, 22, 23, 24, 25, 26, 27, 28, 29, 30, 31, 32, 33, 34, 35, 36, 37, 38, 39, 40, 41, 42, 43, 44, 45, 46, 47, 48, 49, 50, 51, 52, 53, 54, 55, 56, 57, 58, 59, 60, 61, 62, 63, 64, 65, 66, 67, 68, 69, 70, 71, 72, 73, 74, 75, 76, 77, 78, 79, 80, 81, 82, 83, 84, 85, 86, 87, 88, 89, 90, 91, 92, 93, 94, 95, 96, 97, 98, 99, 100, 101, 102, 103, 104, 105, 106, 107, 108, 109, 110, 111, 112, 113, 114, 115, 116, 117, 118, 119, 120, 121, 122, 123, 124, 125, 126, 127, 128, 129, 130, 131, 132, 133, 134, 135, 136, 137, 138, 139, 140, 141, 142, 143, 144, 145, 146, 147, 148, 149, 150, 151, 152, 153, 154, 155, 156, 157, 158, 159, 160, 161, 162, 163, 164, 165, 166, 167, 168, 169, 170, 171, 172, 173, 174, 175, 176, 177, 178, 179, 180, 181, 182, 183, 184, 185, 186, 187, 188, 189, 190, 191, 192, 193, 194, 195, 196, 197, 198, 199, 200, 201, 202, 203, 204, 205, 206, 207, 208, 209, 210, 211, 212, 213, 214, 215, 216, 217, 218, 219, 220, 221, 222, 223, 224, 225, 226, 227, 228, 229, 230, 231, 232, 233, 234, 235, 236, 237, 238, 239, 240, 241, 242, 243, 244, 245, 246, 247, 248, 249, 250, 251, 252, 253, 254, 255, 256, 257, 258, 259, 260, 261, 262, 263, 264, 265, 266, 267, 268, 269, 270, 271, 272, 273, 274, 275, 276, 277, 278, 279, 280, 281, 282, 283, 284, 285, 286, 287, 288, 289, 290, 291, 292, 293, 294, 295, 296, 297, 298, 299, 300, 301, 302, 303, 304, 305, 306, 307, 308, 309, 310, 311, 312, 313, 314, 315, 316, 317, 318, 319, 320, 321, 322, 323, 324, 325, 326, 327, 328, 329, 330],
      "AcquisitionTime": ["134946.447500", "134947.450000", "134948.455000", "134949.460000", "134950.462500", "134951.467500", "134952.470000", "134953.475000", "134954.480000", "134955.482500", "134956.487500", "134957.490000", "134958.495000", "134959.500000", "135000.502500", "135001.507500", "135002.510000", "135003.515000", "135004.520000", "135005.522500", "135006.527500", "135007.530000", "135008.535000", "135009.540000", "135010.542500", "135011.547500", "135012.552500", "135013.555000", "135014.560000", "135015.562500", "135016.567500", "135017.572500", "135018.575000", "135019.580000", "135020.582500", "135021.587500", "135022.592500", "135023.595000", "135024.600000", "135025.602500", "135026.607500", "135027.612500", "135028.615000", "135029.620000", "135030.622500", "135031.627500", "135032.632500", "135033.635000", "135034.640000", "135035.642500", "135036.647500", "135037.652500", "135038.655000", "135039.660000", "135040.665000", "135041.667500", "135042.672500", "135043.675000", "135044.680000", "135045.685000", "135046.687500", "135047.692500", "135048.695000", "135049.700000", "135050.705000", "135051.707500", "135052.712500", "135053.715000", "135054.720000", "135055.725000", "135056.727500", "135057.732500", "135058.735000", "135059.740000", "135100.745000", "135101.747500", "135102.752500", "135103.755000", "135104.760000", "135105.765000", "135106.767500", "135107.772500", "135108.775000", "135109.780000", "135110.785000", "135111.787500", "135112.792500", "135113.797500", "135114.800000", "135115.805000", "135116.807500", "135117.812500", "135118.817500", "135119.820000", "135120.825000", "135121.827500", "135122.832500", "135123.837500", "135124.840000", "135125.845000", "135126.847500", "135127.852500", "135128.857500", "135129.860000", "135130.865000", "135131.867500", "135132.872500", "135133.877500", "135134.880000", "135135.885000", "135136.887500", "135137.892500", "135138.897500", "135139.900000", "135140.905000", "135141.907500", "135142.912500", "135143.917500", "135144.920000", "135145.925000", "135146.930000", "135147.932500", "135148.937500", "135149.940000", "135150.945000", "135151.950000", "135152.952500", "135153.957500", "135154.960000", "135155.965000", "135156.970000", "135157.972500", "135158.977500", "135159.980000", "135200.985000", "135201.990000", "135202.992500", "135203.997500", "135205.000000", "135206.005000", "135207.010000", "135208.012500", "135209.017500", "135210.020000", "135211.025000", "135212.030000", "135213.032500", "135214.037500", "135215.042500", "135216.045000", "135217.050000", "135218.052500", "135219.057500", "135220.062500", "135221.065000", "135222.070000", "135223.072500", "135224.077500", "135225.082500", "135226.085000", "135227.090000", "135228.092500", "135229.097500", "135230.102500", "135231.105000", "135232.110000", "135233.112500", "135234.117500", "135235.122500", "135236.125000", "135237.130000", "135238.132500", "135239.137500", "135240.142500", "135241.145000", "135242.150000", "135243.152500", "135244.157500", "135245.162500", "135246.165000", "135247.170000", "135248.175000", "135249.177500", "135250.182500", "135251.185000", "135252.190000", "135253.195000", "135254.197500", "135255.202500", "135256.205000", "135257.210000", "135258.215000", "135259.217500", "135300.222500", "135301.225000", "135302.230000", "135303.235000", "135304.237500", "135305.242500", "135306.245000", "135307.250000", "135308.255000", "135309.257500", "135310.262500", "135311.265000", "135312.270000", "135313.275000", "135314.277500", "135315.282500", "135316.287500", "135317.290000", "135318.295000", "135319.297500", "135320.302500", "135321.307500", "135322.310000", "135323.315000", "135324.317500", "135325.322500", "135326.327500", "135327.330000", "135328.335000", "135329.337500", "135330.342500", "135331.347500", "135332.350000", "135333.355000", "135334.357500", "135335.362500", "135336.367500", "135337.370000", "135338.375000", "135339.377500", "135340.382500", "135341.387500", "135342.390000", "135343.395000", "135344.397500", "135345.402500", "135346.407500", "135347.410000", "135348.415000", "135349.420000", "135350.422500", "135351.427500", "135352.430000", "135353.435000", "135354.440000", "135355.442500", "135356.447500", "135357.450000", "135358.455000", "135359.460000", "135400.462500", "135401.467500", "135402.470000", "135403.475000", "135404.480000", "135405.482500", "135406.487500", "135407.490000", "135408.495000", "135409.500000", "135410.502500", "135411.507500", "135412.510000", "135413.515000", "135414.520000", "135415.522500", "135416.527500", "135417.530000", "135418.535000", "135419.540000", "135420.542500", "135421.547500", "135422.552500", "135423.555000", "135424.560000", "135425.562500", "135426.567500", "135427.572500", "135428.575000", "135429.580000", "135430.582500", "135431.587500", "135432.592500", "135433.595000", "135434.600000", "135435.602500", "135436.607500", "135437.612500", "135438.615000", "135439.620000", "135440.622500", "135441.627500", "135442.632500", "135443.635000", "135444.640000", "135445.642500", "135446.647500", "135447.652500", "135448.655000", "135449.660000", "135450.665000", "135451.667500", "135452.672500", "135453.675000", "135454.680000", "135455.685000", "135456.687500", "135457.692500", "135458.695000", "135459.700000", "135500.705000", "135501.707500", "135502.712500", "135503.715000", "135504.720000", "135505.725000", "135506.727500", "135507.732500", "135508.735000", "135509.740000", "135510.745000", "135511.747500", "135512.752500", "135513.755000", "135514.760000", "135515.765000", "135516.767500"],
      "ContentTime": ["135016.578000", "135016.593000", "135016.593000", "135016.593000", "135016.593000", "135016.593000", "135016.593000", "135016.593000", "135016.609000", "135016.609000", "135016.609000", "135016.609000", "135016.609000", "135016.609000", "135016.625000", "135016.625000", "135016.625000", "135016.625000", "135016.625000", "135016.640000", "135016.640000", "135016.640000", "135016.640000", "135016.640000", "135016.640000", "135016.656000", "135016.656000", "135016.656000", "135016.656000", "135036.546000", "135036.546000", "135036.546000", "135036.546000", "135036.546000", "135036.562000", "135036.562000", "135036.562000", "135036.562000", "135036.562000", "135036.562000", "135036.562000", "135036.562000", "135036.578000", "135036.578000", "135036.578000", "135036.578000", "135036.593000", "135036.593000", "135036.593000", "135056.546000", "135056.546000", "135056.546000", "135056.546000", "135056.546000", "135056.546000", "135056.562000", "135056.562000", "135056.562000", "135056.562000", "135056.562000", "135056.562000", "135056.578000", "135056.578000", "135056.578000", "135056.578000", "135056.578000", "135056.578000", "135056.578000", "135056.593000", "135116.546000", "135116.546000", "135116.546000", "135116.546000", "135116.546000", "135116.546000", "135116.562000", "135116.562000", "135116.562000", "135116.562000", "135116.562000", "135116.562000", "135116.562000", "135116.562000", "135116.578000", "135116.578000", "135116.578000", "135116.578000", "135116.578000", "135116.578000", "135136.546000", "135136.546000", "135136.546000", "135136.546000", "135136.546000", "135136.546000", "135136.562000", "135136.562000", "135136.562000", "135136.562000", "135136.562000", "135136.562000", "135136.562000", "135136.562000", "135136.578000", "135136.578000", "135136.578000", "135136.578000", "135136.578000", "135136.578000", "135156.546000", "135156.546000", "135156.546000", "135156.546000", "135156.546000", "135156.546000", "135156.562000", "135156.562000", "135156.562000", "135156.562000", "135156.562000", "135156.578000", "135156.578000", "135156.578000", "135156.578000", "135156.578000", "135156.578000", "135156.578000", "135156.578000", "135156.593000", "135216.546000", "135216.546000", "135216.546000", "135216.546000", "135216.546000", "135216.546000", "135216.562000", "135216.562000", "135216.562000", "135216.562000", "135216.562000", "135216.562000", "135216.578000", "135216.578000", "135216.578000", "135216.578000", "135216.578000", "135216.593000", "135216.593000", "135216.625000", "135236.546000", "135236.546000", "135236.546000", "135236.546000", "135236.546000", "135236.546000", "135236.562000", "135236.562000", "135236.562000", "135236.562000", "135236.562000", "135236.562000", "135236.562000", "135236.562000", "135236.578000", "135236.578000", "135236.578000", "135236.578000", "135236.578000", "135236.578000", "135256.546000", "135256.546000", "135256.546000", "135256.546000", "135256.562000", "135256.562000", "135256.562000", "135256.562000", "135256.562000", "135256.562000", "135256.562000", "135256.562000", "135256.578000", "135256.578000", "135256.578000", "135256.578000", "135256.578000", "135256.593000", "135256.593000", "135256.593000", "135316.546000", "135316.546000", "135316.546000", "135316.546000", "135316.546000", "135316.546000", "135316.562000", "135316.562000", "135316.562000", "135316.562000", "135316.562000", "135316.562000", "135316.562000", "135316.562000", "135316.578000", "135316.578000", "135316.578000", "135316.578000", "135316.578000", "135316.578000", "135336.546000", "135336.546000", "135336.546000", "135336.546000", "135336.546000", "135336.546000", "135336.562000", "135336.562000", "135336.562000", "135336.562000", "135336.562000", "135336.562000", "135336.562000", "135336.578000", "135336.578000", "135336.578000", "135336.578000", "135336.578000", "135336.578000", "135336.578000", "135356.546000", "135356.546000", "135356.546000", "135356.546000", "135356.546000", "135356.546000", "135356.562000", "135356.562000", "135356.562000", "135356.562000", "135356.562000", "135356.562000", "135356.578000", "135356.578000", "135356.578000", "135356.578000", "135356.578000", "135356.578000", "135356.578000", "135356.578000", "135416.546000", "135416.546000", "135416.546000", "135416.546000", "135416.546000", "135416.562000", "135416.562000", "135416.562000", "135416.562000", "135416.562000", "135416.562000", "135416.562000", "135416.578000", "135416.578000", "135416.578000", "135416.578000", "135416.578000", "135416.578000", "135416.593000", "135416.593000", "135436.546000", "135436.546000", "135436.546000", "135436.546000", "135436.546000", "135436.546000", "135436.562000", "135436.562000", "135436.562000", "135436.562000", "135436.562000", "135436.562000", "135436.562000", "135436.578000", "135436.578000", "135436.578000", "135436.578000", "135436.578000", "135436.578000", "135436.578000", "135456.546000", "135456.546000", "135456.546000", "135456.546000", "135456.546000", "135456.546000", "135456.562000", "135456.562000", "135456.562000", "135456.562000", "135456.562000", "135456.562000", "135456.562000", "135456.578000", "135456.578000", "135456.578000", "135456.578000", "135456.578000", "135456.578000", "135456.593000", "135516.546000", "135516.546000", "135516.546000", "135516.546000", "135516.546000", "135516.562000", "135516.562000", "135516.562000", "135516.562000", "135516.562000", "135516.562000", "135516.562000", "135516.562000", "135516.578000", "135516.578000", "135516.578000", "135516.578000", "135516.578000", "135516.578000", "135516.578000", "135522.281000"],
      "InstanceCreationTime": ["135016.578000", "135016.593000", "135016.593000", "135016.593000", "135016.593000", "135016.593000", "135016.593000", "135016.593000", "135016.609000", "135016.609000", "135016.609000", "135016.609000", "135016.609000", "135016.609000", "135016.625000", "135016.625000", "135016.625000", "135016.625000", "135016.625000", "135016.640000", "135016.640000", "135016.640000", "135016.640000", "135016.640000", "135016.640000", "135016.656000", "135016.656000", "135016.656000", "135016.656000", "135036.546000", "135036.546000", "135036.546000", "135036.546000", "135036.546000", "135036.562000", "135036.562000", "135036.562000", "135036.562000", "135036.562000", "135036.562000", "135036.562000", "135036.562000", "135036.578000", "135036.578000", "135036.578000", "135036.578000", "135036.593000", "135036.593000", "135036.593000", "135056.546000", "135056.546000", "135056.546000", "135056.546000", "135056.546000", "135056.546000", "135056.562000", "135056.562000", "135056.562000", "135056.562000", "135056.562000", "135056.562000", "135056.578000", "135056.578000", "135056.578000", "135056.578000", "135056.578000", "135056.578000", "135056.578000", "135056.593000", "135116.546000", "135116.546000", "135116.546000", "135116.546000", "135116.546000", "135116.546000", "135116.562000", "135116.562000", "135116.562000", "135116.562000", "135116.562000", "135116.562000", "135116.562000", "135116.562000", "135116.578000", "135116.578000", "135116.578000", "135116.578000", "135116.578000", "135116.578000", "135136.546000", "135136.546000", "135136.546000", "135136.546000", "135136.546000", "135136.546000", "135136.562000", "135136.562000", "135136.562000", "135136.562000", "135136.562000", "135136.562000", "135136.562000", "135136.562000", "135136.578000", "135136.578000", "135136.578000", "135136.578000", "135136.578000", "135136.578000", "135156.546000", "135156.546000", "135156.546000", "135156.546000", "135156.546000", "135156.546000", "135156.562000", "135156.562000", "135156.562000", "135156.562000", "135156.562000", "135156.578000", "135156.578000", "135156.578000", "135156.578000", "135156.578000", "135156.578000", "135156.578000", "135156.578000", "135156.593000", "135216.546000", "135216.546000", "135216.546000", "135216.546000", "135216.546000", "135216.546000", "135216.562000", "135216.562000", "135216.562000", "135216.562000", "135216.562000", "135216.562000", "135216.578000", "135216.578000", "135216.578000", "135216.578000", "135216.578000", "135216.593000", "135216.593000", "135216.625000", "135236.546000", "135236.546000", "135236.546000", "135236.546000", "135236.546000", "135236.546000", "135236.562000", "135236.562000", "135236.562000", "135236.562000", "135236.562000", "135236.562000", "135236.562000", "135236.562000", "135236.578000", "135236.578000", "135236.578000", "135236.578000", "135236.578000", "135236.578000", "135256.546000", "135256.546000", "135256.546000", "135256.546000", "135256.562000", "135256.562000", "135256.562000", "135256.562000", "135256.562000", "135256.562000", "135256.562000", "135256.562000", "135256.578000", "135256.578000", "135256.578000", "135256.578000", "135256.578000", "135256.593000", "135256.593000", "135256.593000", "135316.546000", "135316.546000", "135316.546000", "135316.546000", "135316.546000", "135316.546000", "135316.562000", "135316.562000", "135316.562000", "135316.562000", "135316.562000", "135316.562000", "135316.562000", "135316.562000", "135316.578000", "135316.578000", "135316.578000", "135316.578000", "135316.578000", "135316.578000", "135336.546000", "135336.546000", "135336.546000", "135336.546000", "135336.546000", "135336.546000", "135336.562000", "135336.562000", "135336.562000", "135336.562000", "135336.562000", "135336.562000", "135336.562000", "135336.578000", "135336.578000", "135336.578000", "135336.578000", "135336.578000", "135336.578000", "135336.578000", "135356.546000", "135356.546000", "135356.546000", "135356.546000", "135356.546000", "135356.546000", "135356.562000", "135356.562000", "135356.562000", "135356.562000", "135356.562000", "135356.562000", "135356.578000", "135356.578000", "135356.578000", "135356.578000", "135356.578000", "135356.578000", "135356.578000", "135356.578000", "135416.546000", "135416.546000", "135416.546000", "135416.546000", "135416.546000", "135416.562000", "135416.562000", "135416.562000", "135416.562000", "135416.562000", "135416.562000", "135416.562000", "135416.578000", "135416.578000", "135416.578000", "135416.578000", "135416.578000", "135416.578000", "135416.593000", "135416.593000", "135436.546000", "135436.546000", "135436.546000", "135436.546000", "135436.546000", "135436.546000", "135436.562000", "135436.562000", "135436.562000", "135436.562000", "135436.562000", "135436.562000", "135436.562000", "135436.578000", "135436.578000", "135436.578000", "135436.578000", "135436.578000", "135436.578000", "135436.578000", "135456.546000", "135456.546000", "135456.546000", "135456.546000", "135456.546000", "135456.546000", "135456.562000", "135456.562000", "135456.562000", "135456.562000", "135456.562000", "135456.562000", "135456.562000", "135456.578000", "135456.578000", "135456.578000", "135456.578000", "135456.578000", "135456.578000", "135456.593000", "135516.546000", "135516.546000", "135516.546000", "135516.546000", "135516.546000", "135516.562000", "135516.562000", "135516.562000", "135516.562000", "135516.562000", "135516.562000", "135516.562000", "135516.562000", "135516.578000", "135516.578000", "135516.578000", "135516.578000", "135516.578000", "135516.578000", "135516.578000", "135522.281000"],
      "InstanceNumber": [1, 2, 3, 4, 5, 6, 7, 8, 9, 10, 11, 12, 13, 14, 15, 16, 17, 18, 19, 20, 21, 22, 23, 24, 25, 26, 27, 28, 29, 30, 31, 32, 33, 34, 35, 36, 37, 38, 39, 40, 41, 42, 43, 44, 45, 46, 47, 48, 49, 50, 51, 52, 53, 54, 55, 56, 57, 58, 59, 60, 61, 62, 63, 64, 65, 66, 67, 68, 69, 70, 71, 72, 73, 74, 75, 76, 77, 78, 79, 80, 81, 82, 83, 84, 85, 86, 87, 88, 89, 90, 91, 92, 93, 94, 95, 96, 97, 98, 99, 100, 101, 102, 103, 104, 105, 106, 107, 108, 109, 110, 111, 112, 113, 114, 115, 116, 117, 118, 119, 120, 121, 122, 123, 124, 125, 126, 127, 128, 129, 130, 131, 132, 133, 134, 135, 136, 137, 138, 139, 140, 141, 142, 143, 144, 145, 146, 147, 148, 149, 150, 151, 152, 153, 154, 155, 156, 157, 158, 159, 160, 161, 162, 163, 164, 165, 166, 167, 168, 169, 170, 171, 172, 173, 174, 175, 176, 177, 178, 179, 180, 181, 182, 183, 184, 185, 186, 187, 188, 189, 190, 191, 192, 193, 194, 195, 196, 197, 198, 199, 200, 201, 202, 203, 204, 205, 206, 207, 208, 209, 210, 211, 212, 213, 214, 215, 216, 217, 218, 219, 220, 221, 222, 223, 224, 225, 226, 227, 228, 229, 230, 231, 232, 233, 234, 235, 236, 237, 238, 239, 240, 241, 242, 243, 244, 245, 246, 247, 248, 249, 250, 251, 252, 253, 254, 255, 256, 257, 258, 259, 260, 261, 262, 263, 264, 265, 266, 267, 268, 269, 270, 271, 272, 273, 274, 275, 276, 277, 278, 279, 280, 281, 282, 283, 284, 285, 286, 287, 288, 289, 290, 291, 292, 293, 294, 295, 296, 297, 298, 299, 300, 301, 302, 303, 304, 305, 306, 307, 308, 309, 310, 311, 312, 313, 314, 315, 316, 317, 318, 319, 320, 321, 322, 323, 324, 325, 326, 327, 328, 329, 330],
      "LargestImagePixelValue": [1581, 1586, 1553, 1567, 1540, 1518, 1499, 1543, 1606, 1532, 1583, 1540, 1542, 1572, 1529, 1518, 1540, 1533, 1564, 1559, 1579, 1542, 1553, 1537, 1599, 1511, 1591, 1546, 1552, 1550, 1572, 1578, 1589, 1554, 1597, 1565, 1595, 1536, 1565, 1550, 1581, 1529, 1586, 1579, 1611, 1507, 1534, 1574, 1595, 1553, 1566, 1592, 1584, 1602, 1552, 1555, 1544, 1579, 1595, 1580, 1570, 1557, 1521, 1577, 1622, 1527, 1560, 1585, 1583, 1563, 1583, 1569, 1566, 1562, 1550, 1558, 1543, 1522, 1551, 1522, 1530, 1535, 1575, 1524, 1592, 1506, 1543, 1564, 1559, 1555, 1519, 1556, 1540, 1546, 1524, 1525, 1485, 1564, 1523, 1524, 1529, 1478, 1591, 1539, 1512, 1533, 1490, 1559, 1556, 1544, 1505, 1564, 1542, 1578, 1549, 1538, 1536, 1539, 1553, 1550, 1557, 1530, 1562, 1580, 1590, 1588, 1579, 1571, 1579, 1563, 1568, 1545, 1558, 1533, 1539, 1554, 1566, 1612, 1543, 1592, 1575, 1592, 1547, 1552, 1554, 1550, 1579, 1524, 1554, 1598, 1581, 1581, 1538, 1556, 1530, 1552, 1537, 1564, 1583, 1538, 1603, 1575, 1560, 1584, 1555, 1597, 1555, 1528, 1564, 1591, 1581, 1527, 1571, 1551, 1569, 1571, 1532, 1597, 1556, 1556, 1570, 1541, 1564, 1566, 1597, 1542, 1549, 1588, 1551, 1576, 1570, 1576, 1579, 1562, 1594, 1560, 1531, 1561, 1598, 1584, 1544, 1526, 1541, 1529, 1556, 1571, 1542, 1557, 1554, 1541, 1542, 1512, 1522, 1560, 1581, 1523, 1533, 1558, 1581, 1563, 1507, 1572, 1541, 1572, 1559, 1510, 1569, 1524, 1536, 1542, 1537, 1538, 1541, 1517, 1538, 1528, 1512, 1563, 1559, 1566, 1538, 1486, 1468, 1524, 1519, 1483, 1533, 1517, 1526, 1516, 1543, 1525, 1550, 1506, 1525, 1536, 1555, 1525, 1545, 1578, 1502, 1550, 1530, 1581, 1602, 1513, 1520, 1560, 1543, 1586, 1533, 1566, 1532, 1525, 1593, 1561, 1537, 1557, 1542, 1552, 1548, 1525, 1578, 1605, 1563, 1574, 1549, 1534, 1589, 1548, 1591, 1589, 1556, 1537, 1596, 1553, 1513, 1548, 1519, 1577, 1540, 1579, 1521, 1523, 1595, 1538, 1526, 1530, 1544, 1547, 1535, 1570, 1539, 1564, 1556, 1510, 1503, 1547, 1526, 1528, 1540, 1552, 1512, 1536, 1541, 1538, 1559, 1538, 1553, 1586],
      "WindowCenter": [341.0, 341.0, 341.0, 342.0, 342.0, 341.0, 340.0, 340.0, 341.0, 339.0, 339.0, 339.0, 340.0, 340.0, 340.0, 340.0, 340.0, 339.0, 340.0, 341.0, 341.0, 341.0, 341.0, 341.0, 341.0, 341.0, 342.0, 342.0, 341.0, 341.0, 341.0, 341.0, 341.0, 341.0, 341.0, 341.0, 342.0, 341.0, 341.0, 341.0, 341.0, 341.0, 343.0, 342.0, 343.0, 341.0, 341.0, 341.0, 342.0, 342.0, 342.0, 341.0, 341.0, 341.0, 341.0, 340.0, 339.0, 339.0, 339.0, 340.0, 340.0, 341.0, 342.0, 342.0, 343.0, 342.0, 341.0, 341.0, 341.0, 342.0, 342.0, 342.0, 342.0, 341.0, 340.0, 340.0, 340.0, 340.0, 340.0, 341.0, 340.0, 340.0, 341.0, 340.0, 341.0, 340.0, 341.0, 341.0, 341.0, 341.0, 340.0, 341.0, 341.0, 341.0, 340.0, 340.0, 339.0, 340.0, 341.0, 341.0, 341.0, 341.0, 341.0, 340.0, 339.0, 339.0, 339.0, 339.0, 340.0, 340.0, 340.0, 340.0, 340.0, 340.0, 340.0, 341.0, 341.0, 341.0, 341.0, 341.0, 341.0, 341.0, 341.0, 341.0, 341.0, 342.0, 342.0, 342.0, 342.0, 342.0, 341.0, 341.0, 341.0, 341.0, 341.0, 341.0, 341.0, 341.0, 340.0, 340.0, 340.0, 341.0, 342.0, 342.0, 342.0, 342.0, 341.0, 340.0, 340.0, 341.0, 341.0, 341.0, 341.0, 341.0, 341.0, 341.0, 341.0, 341.0, 341.0, 341.0, 343.0, 342.0, 342.0, 341.0, 341.0, 342.0, 342.0, 342.0, 342.0, 342.0, 343.0, 341.0, 340.0, 339.0, 340.0, 340.0, 340.0, 341.0, 341.0, 340.0, 340.0, 339.0, 339.0, 340.0, 341.0, 341.0, 341.0, 341.0, 341.0, 342.0, 342.0, 342.0, 342.0, 341.0, 341.0, 341.0, 341.0, 341.0, 341.0, 341.0, 341.0, 341.0, 340.0, 340.0, 340.0, 341.0, 341.0, 341.0, 340.0, 340.0, 340.0, 340.0, 340.0, 340.0, 341.0, 341.0, 341.0, 340.0, 340.0, 340.0, 338.0, 340.0, 340.0, 340.0, 340.0, 339.0, 340.0, 340.0, 341.0, 341.0, 340.0, 340.0, 340.0, 340.0, 340.0, 339.0, 339.0, 340.0, 339.0, 341.0, 341.0, 342.0, 342.0, 342.0, 341.0, 340.0, 341.0, 341.0, 341.0, 341.0, 340.0, 340.0, 340.0, 340.0, 340.0, 340.0, 340.0, 340.0, 341.0, 341.0, 341.0, 341.0, 341.0, 341.0, 342.0, 342.0, 342.0, 342.0, 342.0, 342.0, 342.0, 342.0, 342.0, 342.0, 343.0, 342.0, 341.0, 341.0, 341.0, 341.0, 341.0, 341.0, 342.0, 342.0, 342.0, 342.0, 342.0, 341.0, 341.0, 341.0, 340.0, 340.0, 340.0, 341.0, 342.0, 343.0, 343.0, 342.0, 341.0, 341.0, 341.0, 341.0, 341.0, 341.0, 342.0, 342.0, 342.0, 342.0, 341.0, 341.0, 341.0, 341.0, 341.0, 341.0, 341.0, 341.0, 341.0, 341.0, 341.0, 341.0, 341.0, 341.0, 341.0, 341.0, 341.0, 341.0, 341.0, 341.0, 341.0, 341.0],
