{
  "AcquisitionMatrixPE": 104,
  "AcquisitionNumber": 1,
  "AcquisitionTime": "13:00:52.805000",
  "BandwidthPerPixelPhaseEncode": 43.054,
  "BaseResolution": 104,
  "CoilString": "C:E1_2",
  "ConversionSoftware": "dcm2niix",
  "ConversionSoftwareVersion": "v1.0.20191031",
  "DerivedVendorReportedEchoSpacing": 0.000669999,
  "DeviceSerialNumber": "18932",
  "DwellTime": 2.8e-06,
  "EchoTime": 0.02,
  "EffectiveEchoSpacing": 0.000223333,
  "FlipAngle": 30,
  "ImageComments": "Unaliased_MB2_PE2",
  "ImageOrientationPatientDICOM": [1, 0, 0, 0, 0.975535, -0.219846],
  "ImageType": [
    "ORIGINAL",
    "PRIMARY",
    "M",
    "MB",
    "ND",
    "MOSAIC"
],
  "ImagingFrequency": 297.228,
  "InPlanePhaseEncodingDirectionDICOM": "COL",
  "InstitutionAddress": "Richmond_Street_North_1151_London_409EF2_Ontario_CA_N6A_5B7",
  "InstitutionName": "Robarts_Reserch_Institute",
  "InstitutionalDepartmentName": "Department",
  "MRAcquisitionType": "2D",
  "MagneticFieldStrength": 6.98,
  "Manufacturer": "Siemens",
  "ManufacturersModelName": "Investigational_Device_7T",
  "Modality": "MR",
  "MultibandAccelerationFactor": 2,
  "ParallelReductionFactorInPlane": 3,
  "PartialFourier": 0.875,
  "PatientPosition": "HFS",
  "PercentPhaseFOV": 100,
  "PhaseEncodingDirection": "j-",
  "PhaseEncodingSteps": 91,
  "PhaseResolution": 1,
  "PixelBandwidth": 1717,
  "ProcedureStepDescription": "Diedrichsen_SeqRep4",
  "ProtocolName": "mbep2d_bold_mb2_p3_AP_2iso",
  "PulseSequenceDetails": "%CustomerSeq%_cmrr_mbep2d_bold",
  "ReceiveCoilName": "CFMM_8Tx32Rx",
  "ReconMatrixPE": 104,
  "RefLinesPE": 36,
  "RepetitionTime": 1,
  "ScanOptions": "PFP_FS",
  "ScanningSequence": "EP",
  "SequenceName": "epfid2d1_104",
  "SequenceVariant": "SK_SS",
  "SeriesDescription": "mbep2d_bold_mb2_p3_AP_2iso",
  "SeriesNumber": 13,
  "ShimSetting": [-74, 2049, 366, 308, 96, -127, -259, -116],
  "SliceThickness": 2,
  "SliceTiming": [0, 0.23, 0.4575, 0.685, 0.9125, 0.1375, 0.365, 0.595, 0.8225, 0.0475, 0.275, 0.5025, 0.73, 0.9575, 0.1825, 0.4125, 0.64, 0.8675, 0.0925, 0.32, 0.5475, 0.7775, 0, 0.23, 0.4575, 0.685, 0.9125, 0.1375, 0.365, 0.595, 0.8225, 0.0475, 0.275, 0.5025, 0.73, 0.9575, 0.1825, 0.4125, 0.64, 0.8675, 0.0925, 0.32, 0.5475, 0.7775],
  "SoftwareVersions": "syngo_MR_B17",
  "SpacingBetweenSlices": 2,
  "StationName": "MASTER",
  "TaskName": "dsp",
  "TotalReadoutTime": 0.0230033,
  "TxRefAmp": 120,
  "dcmmeta_affine": [
    [-2.0, 0.0, 0.0, 105.4527816772461],
    [0.0, 1.9510691165924072, -0.4396924078464508, -102.40196990966797],
    [0.0, 0.4396924078464508, 1.9510691165924072, -65.14813232421875],
    [0.0, 0.0, 0.0, 1.0]
],
  "dcmmeta_reorient_transform": [
    [0.0, -1.0, 0.0, 103.0],
    [1.0, 0.0, 0.0, 0.0],
    [0.0, 0.0, 1.0, 0.0],
    [0.0, 0.0, 0.0, 1.0]
],
  "dcmmeta_shape": [104, 104, 44, 330],
  "dcmmeta_slice_dim": 2,
  "dcmmeta_version": 0.6,
  "global": {
    "const": {
      "AcquisitionMatrix": [104, 0, 0, 104],
      "AngioFlag": "N",
      "BitsAllocated": 16,
      "BitsStored": 12,
      "Columns": 728,
      "EchoNumbers": 1,
      "EchoTime": 20.0,
      "EchoTrainLength": 1,
      "FlipAngle": 30.0,
      "HighBit": 11,
      "ImageOrientationPatient": [1.0, 0.0, 0.0, 0.0, 0.97553454431481, -0.2198462027157],
      "ImagePositionPatient": [-729.45278453827, -707.29169876777, 117.32421584434],
      "ImageType": [
        "ORIGINAL",
        "PRIMARY",
        "M",
        "MB",
        "ND",
        "MOSAIC"
],
      "ImagedNucleus": "1H",
      "ImagingFrequency": 297.228097,
      "InPlanePhaseEncodingDirection": "COL",
      "MRAcquisitionType": "2D",
      "MagneticFieldStrength": 6.98,
      "Manufacturer": "SIEMENS",
      "ManufacturerModelName": "Investigational_Device_7T",
      "Modality": "MR",
      "NumberOfAverages": 1.0,
      "NumberOfPhaseEncodingSteps": 91,
      "PercentPhaseFieldOfView": 100.0,
      "PercentSampling": 100.0,
      "PerformedProcedureStepStartTime": "124150.406000",
      "PhotometricInterpretation": "MONOCHROME2",
      "PixelBandwidth": 1717.0,
      "PixelRepresentation": 0,
      "PixelSpacing": [2.0, 2.0],
      "ProtocolName": "mbep2d_bold_mb2_p3_AP 2iso",
      "RepetitionTime": 1000.0,
      "Rows": 728,
      "SAR": 0.0,
      "SamplesPerPixel": 1,
      "ScanOptions": [
        "PFP",
        "FS"
],
      "ScanningSequence": "EP",
      "SequenceName": "epfid2d1_104",
      "SequenceVariant": [
        "SK",
        "SS"
],
      "SeriesDescription": "mbep2d_bold_mb2_p3_AP 2iso",
      "SeriesNumber": 13,
      "SeriesTime": "130121.968000",
      "SliceLocation": -41.041568745608,
      "SliceThickness": 2.0,
      "SmallestImagePixelValue": 0,
      "SoftwareVersions": "syngo MR B17",
      "SpacingBetweenSlices": 1.9999999733392,
      "SpecificCharacterSet": "ISO_IR 100",
      "StudyID": "1",
      "StudyTime": "124150.343000",
      "TransmitCoilName": "CFMM_8Tx32Rx",
      "VariableFlipAngleFlag": "N",
      "WindowCenterWidthExplanation": "Algo1",
      "dBdt": 0.0},
    "slices": {}
  },
  "time": {
    "samples": {
      "AcquisitionNumber": [1, 2, 3, 4, 5, 6, 7, 8, 9, 10, 11, 12, 13, 14, 15, 16, 17, 18, 19, 20, 21, 22, 23, 24, 25, 26, 27, 28, 29, 30, 31, 32, 33, 34, 35, 36, 37, 38, 39, 40, 41, 42, 43, 44, 45, 46, 47, 48, 49, 50, 51, 52, 53, 54, 55, 56, 57, 58, 59, 60, 61, 62, 63, 64, 65, 66, 67, 68, 69, 70, 71, 72, 73, 74, 75, 76, 77, 78, 79, 80, 81, 82, 83, 84, 85, 86, 87, 88, 89, 90, 91, 92, 93, 94, 95, 96, 97, 98, 99, 100, 101, 102, 103, 104, 105, 106, 107, 108, 109, 110, 111, 112, 113, 114, 115, 116, 117, 118, 119, 120, 121, 122, 123, 124, 125, 126, 127, 128, 129, 130, 131, 132, 133, 134, 135, 136, 137, 138, 139, 140, 141, 142, 143, 144, 145, 146, 147, 148, 149, 150, 151, 152, 153, 154, 155, 156, 157, 158, 159, 160, 161, 162, 163, 164, 165, 166, 167, 168, 169, 170, 171, 172, 173, 174, 175, 176, 177, 178, 179, 180, 181, 182, 183, 184, 185, 186, 187, 188, 189, 190, 191, 192, 193, 194, 195, 196, 197, 198, 199, 200, 201, 202, 203, 204, 205, 206, 207, 208, 209, 210, 211, 212, 213, 214, 215, 216, 217, 218, 219, 220, 221, 222, 223, 224, 225, 226, 227, 228, 229, 230, 231, 232, 233, 234, 235, 236, 237, 238, 239, 240, 241, 242, 243, 244, 245, 246, 247, 248, 249, 250, 251, 252, 253, 254, 255, 256, 257, 258, 259, 260, 261, 262, 263, 264, 265, 266, 267, 268, 269, 270, 271, 272, 273, 274, 275, 276, 277, 278, 279, 280, 281, 282, 283, 284, 285, 286, 287, 288, 289, 290, 291, 292, 293, 294, 295, 296, 297, 298, 299, 300, 301, 302, 303, 304, 305, 306, 307, 308, 309, 310, 311, 312, 313, 314, 315, 316, 317, 318, 319, 320, 321, 322, 323, 324, 325, 326, 327, 328, 329, 330],
      "AcquisitionTime": ["130052.805000", "130053.810000", "130054.815000", "130055.817500", "130056.822500", "130057.825000", "130058.830000", "130059.835000", "130100.837500", "130101.842500", "130102.845000", "130103.850000", "130104.855000", "130105.857500", "130106.862500", "130107.865000", "130108.870000", "130109.875000", "130110.877500", "130111.882500", "130112.885000", "130113.890000", "130114.895000", "130115.897500", "130116.902500", "130117.907500", "130118.910000", "130119.915000", "130120.917500", "130121.922500", "130122.927500", "130123.930000", "130124.935000", "130125.937500", "130126.942500", "130127.947500", "130128.950000", "130129.955000", "130130.957500", "130131.962500", "130132.967500", "130133.970000", "130134.975000", "130135.977500", "130136.982500", "130137.987500", "130138.990000", "130139.995000", "130140.997500", "130142.002500", "130143.007500", "130144.010000", "130145.015000", "130146.017500", "130147.022500", "130148.027500", "130149.030000", "130150.035000", "130151.040000", "130152.042500", "130153.047500", "130154.050000", "130155.055000", "130156.060000", "130157.062500", "130158.067500", "130159.070000", "130200.075000", "130201.080000", "130202.082500", "130203.087500", "130204.090000", "130205.095000", "130206.100000", "130207.102500", "130208.107500", "130209.110000", "130210.115000", "130211.120000", "130212.122500", "130213.127500", "130214.130000", "130215.135000", "130216.140000", "130217.142500", "130218.147500", "130219.150000", "130220.155000", "130221.160000", "130222.162500", "130223.167500", "130224.172500", "130225.175000", "130226.180000", "130227.182500", "130228.187500", "130229.192500", "130230.195000", "130231.200000", "130232.202500", "130233.207500", "130234.212500", "130235.215000", "130236.220000", "130237.222500", "130238.227500", "130239.232500", "130240.235000", "130241.240000", "130242.242500", "130243.247500", "130244.252500", "130245.255000", "130246.260000", "130247.262500", "130248.267500", "130249.272500", "130250.275000", "130251.280000", "130252.285000", "130253.287500", "130254.292500", "130255.295000", "130256.300000", "130257.305000", "130258.307500", "130259.312500", "130300.315000", "130301.320000", "130302.325000", "130303.327500", "130304.332500", "130305.335000", "130306.340000", "130307.345000", "130308.347500", "130309.352500", "130310.355000", "130311.360000", "130312.365000", "130313.367500", "130314.372500", "130315.375000", "130316.380000", "130317.385000", "130318.387500", "130319.392500", "130320.395000", "130321.400000", "130322.405000", "130323.407500", "130324.412500", "130325.417500", "130326.420000", "130327.425000", "130328.427500", "130329.432500", "130330.437500", "130331.440000", "130332.445000", "130333.447500", "130334.452500", "130335.457500", "130336.460000", "130337.465000", "130338.467500", "130339.472500", "130340.477500", "130341.480000", "130342.485000", "130343.487500", "130344.492500", "130345.497500", "130346.500000", "130347.505000", "130348.507500", "130349.512500", "130350.517500", "130351.520000", "130352.525000", "130353.530000", "130354.532500", "130355.537500", "130356.540000", "130357.545000", "130358.550000", "130359.552500", "130400.557500", "130401.560000", "130402.565000", "130403.570000", "130404.572500", "130405.577500", "130406.580000", "130407.585000", "130408.590000", "130409.592500", "130410.597500", "130411.600000", "130412.605000", "130413.610000", "130414.612500", "130415.617500", "130416.620000", "130417.625000", "130418.630000", "130419.632500", "130420.637500", "130421.640000", "130422.645000", "130423.650000", "130424.652500", "130425.657500", "130426.662500", "130427.665000", "130428.670000", "130429.672500", "130430.677500", "130431.682500", "130432.685000", "130433.690000", "130434.692500", "130435.697500", "130436.702500", "130437.705000", "130438.710000", "130439.712500", "130440.717500", "130441.722500", "130442.725000", "130443.730000", "130444.732500", "130445.737500", "130446.742500", "130447.745000", "130448.750000", "130449.752500", "130450.757500", "130451.762500", "130452.765000", "130453.770000", "130454.772500", "130455.777500", "130456.782500", "130457.785000", "130458.790000", "130459.795000", "130500.797500", "130501.802500", "130502.805000", "130503.810000", "130504.815000", "130505.817500", "130506.822500", "130507.825000", "130508.830000", "130509.835000", "130510.837500", "130511.842500", "130512.845000", "130513.850000", "130514.855000", "130515.857500", "130516.862500", "130517.865000", "130518.870000", "130519.875000", "130520.877500", "130521.882500", "130522.885000", "130523.890000", "130524.895000", "130525.897500", "130526.902500", "130527.907500", "130528.910000", "130529.915000", "130530.917500", "130531.922500", "130532.927500", "130533.930000", "130534.935000", "130535.937500", "130536.942500", "130537.947500", "130538.950000", "130539.955000", "130540.957500", "130541.962500", "130542.967500", "130543.970000", "130544.975000", "130545.977500", "130546.982500", "130547.987500", "130548.990000", "130549.995000", "130550.997500", "130552.002500", "130553.007500", "130554.010000", "130555.015000", "130556.017500", "130557.022500", "130558.027500", "130559.030000", "130600.035000", "130601.040000", "130602.042500", "130603.047500", "130604.050000", "130605.055000", "130606.060000", "130607.062500", "130608.067500", "130609.070000", "130610.075000", "130611.080000", "130612.082500", "130613.087500", "130614.090000", "130615.095000", "130616.100000", "130617.102500", "130618.107500", "130619.110000", "130620.115000", "130621.120000", "130622.122500", "130623.127500"],
      "ContentTime": ["130121.968000", "130121.968000", "130121.968000", "130121.984000", "130121.984000", "130121.984000", "130121.984000", "130121.984000", "130121.984000", "130122.000000", "130122.000000", "130122.000000", "130122.000000", "130122.015000", "130122.015000", "130122.015000", "130122.015000", "130122.015000", "130122.015000", "130122.015000", "130122.031000", "130122.031000", "130122.031000", "130122.031000", "130122.031000", "130122.031000", "130122.031000", "130141.937000", "130141.937000", "130141.937000", "130141.937000", "130141.937000", "130141.937000", "130141.953000", "130141.953000", "130141.953000", "130141.953000", "130141.953000", "130141.953000", "130141.953000", "130141.953000", "130141.968000", "130141.968000", "130141.968000", "130141.968000", "130141.968000", "130141.968000", "130201.937000", "130201.937000", "130201.937000", "130201.937000", "130201.937000", "130201.937000", "130201.953000", "130201.953000", "130201.953000", "130201.953000", "130201.953000", "130201.953000", "130201.953000", "130201.953000", "130201.968000", "130201.968000", "130201.968000", "130201.968000", "130201.968000", "130201.968000", "130221.937000", "130221.937000", "130221.937000", "130221.937000", "130221.937000", "130221.937000", "130221.953000", "130221.953000", "130221.953000", "130221.968000", "130221.968000", "130221.968000", "130221.968000", "130221.968000", "130221.968000", "130221.968000", "130221.984000", "130221.984000", "130221.984000", "130221.984000", "130241.937000", "130241.937000", "130241.937000", "130241.937000", "130241.937000", "130241.937000", "130241.953000", "130241.953000", "130241.953000", "130241.953000", "130241.953000", "130241.953000", "130241.953000", "130241.953000", "130241.968000", "130241.968000", "130241.968000", "130241.968000", "130241.968000", "130241.968000", "130301.937000", "130301.937000", "130301.937000", "130301.937000", "130301.937000", "130301.937000", "130301.953000", "130301.953000", "130301.953000", "130301.953000", "130301.953000", "130301.953000", "130301.953000", "130301.968000", "130301.968000", "130301.968000", "130301.968000", "130301.968000", "130301.968000", "130301.968000", "130321.937000", "130321.937000", "130321.937000", "130321.937000", "130321.953000", "130321.953000", "130321.953000", "130321.953000", "130321.953000", "130321.953000", "130321.953000", "130321.968000", "130321.968000", "130321.968000", "130321.968000", "130321.968000", "130321.968000", "130321.968000", "130321.968000", "130321.984000", "130341.937000", "130341.937000", "130341.937000", "130341.937000", "130341.937000", "130341.953000", "130341.953000", "130341.953000", "130341.953000", "130341.953000", "130341.953000", "130341.953000", "130341.953000", "130341.968000", "130341.968000", "130341.968000", "130341.968000", "130341.968000", "130341.968000", "130341.968000", "130401.937000", "130401.937000", "130401.937000", "130401.937000", "130401.937000", "130401.937000", "130401.953000", "130401.953000", "130401.953000", "130401.953000", "130401.953000", "130401.953000", "130401.953000", "130401.953000", "130401.968000", "130401.968000", "130401.968000", "130401.968000", "130401.968000", "130401.968000", "130421.937000", "130421.937000", "130421.953000", "130421.953000", "130421.953000", "130421.953000", "130421.953000", "130421.953000", "130421.968000", "130421.968000", "130421.968000", "130421.968000", "130421.968000", "130421.984000", "130421.984000", "130421.984000", "130421.984000", "130421.984000", "130421.984000", "130421.984000", "130441.937000", "130441.937000", "130441.937000", "130441.937000", "130441.937000", "130441.937000", "130441.953000", "130441.953000", "130441.953000", "130441.953000", "130441.953000", "130441.953000", "130441.953000", "130441.968000", "130441.968000", "130441.968000", "130441.968000", "130441.968000", "130441.968000", "130441.968000", "130501.937000", "130501.937000", "130501.937000", "130501.937000", "130501.937000", "130501.937000", "130501.953000", "130501.953000", "130501.953000", "130501.953000", "130501.953000", "130501.953000", "130501.953000", "130501.953000", "130501.968000", "130501.968000", "130501.968000", "130501.968000", "130501.968000", "130501.968000", "130521.937000", "130521.937000", "130521.937000", "130521.937000", "130521.937000", "130521.937000", "130521.953000", "130521.953000", "130521.953000", "130521.953000", "130521.953000", "130521.953000", "130521.968000", "130521.968000", "130521.968000", "130521.968000", "130521.968000", "130521.968000", "130521.984000", "130521.984000", "130541.937000", "130541.937000", "130541.937000", "130541.937000", "130541.937000", "130541.937000", "130541.953000", "130541.953000", "130541.953000", "130541.953000", "130541.953000", "130541.953000", "130541.953000", "130541.968000", "130541.968000", "130541.968000", "130541.968000", "130541.968000", "130541.968000", "130541.968000", "130601.937000", "130601.937000", "130601.937000", "130601.937000", "130601.937000", "130601.937000", "130601.953000", "130601.953000", "130601.953000", "130601.953000", "130601.953000", "130601.953000", "130601.953000", "130601.953000", "130601.968000", "130601.968000", "130601.968000", "130601.968000", "130601.968000", "130601.968000", "130621.937000", "130621.937000", "130621.937000", "130621.937000", "130621.937000", "130621.937000", "130621.953000", "130621.953000", "130621.953000", "130621.953000", "130621.953000", "130621.953000", "130621.953000", "130621.953000", "130621.968000", "130621.968000", "130621.968000", "130621.968000", "130621.968000", "130621.968000", "130629.359000", "130629.359000", "130629.359000"],
      "InstanceCreationTime": ["130121.968000", "130121.968000", "130121.968000", "130121.984000", "130121.984000", "130121.984000", "130121.984000", "130121.984000", "130121.984000", "130122.000000", "130122.000000", "130122.000000", "130122.000000", "130122.015000", "130122.015000", "130122.015000", "130122.015000", "130122.015000", "130122.015000", "130122.015000", "130122.031000", "130122.031000", "130122.031000", "130122.031000", "130122.031000", "130122.031000", "130122.031000", "130141.937000", "130141.937000", "130141.937000", "130141.937000", "130141.937000", "130141.937000", "130141.953000", "130141.953000", "130141.953000", "130141.953000", "130141.953000", "130141.953000", "130141.953000", "130141.953000", "130141.968000", "130141.968000", "130141.968000", "130141.968000", "130141.968000", "130141.968000", "130201.937000", "130201.937000", "130201.937000", "130201.937000", "130201.937000", "130201.937000", "130201.953000", "130201.953000", "130201.953000", "130201.953000", "130201.953000", "130201.953000", "130201.953000", "130201.953000", "130201.968000", "130201.968000", "130201.968000", "130201.968000", "130201.968000", "130201.968000", "130221.937000", "130221.937000", "130221.937000", "130221.937000", "130221.937000", "130221.937000", "130221.953000", "130221.953000", "130221.953000", "130221.968000", "130221.968000", "130221.968000", "130221.968000", "130221.968000", "130221.968000", "130221.968000", "130221.984000", "130221.984000", "130221.984000", "130221.984000", "130241.937000", "130241.937000", "130241.937000", "130241.937000", "130241.937000", "130241.937000", "130241.953000", "130241.953000", "130241.953000", "130241.953000", "130241.953000", "130241.953000", "130241.953000", "130241.953000", "130241.968000", "130241.968000", "130241.968000", "130241.968000", "130241.968000", "130241.968000", "130301.937000", "130301.937000", "130301.937000", "130301.937000", "130301.937000", "130301.937000", "130301.953000", "130301.953000", "130301.953000", "130301.953000", "130301.953000", "130301.953000", "130301.953000", "130301.968000", "130301.968000", "130301.968000", "130301.968000", "130301.968000", "130301.968000", "130301.968000", "130321.937000", "130321.937000", "130321.937000", "130321.937000", "130321.953000", "130321.953000", "130321.953000", "130321.953000", "130321.953000", "130321.953000", "130321.953000", "130321.968000", "130321.968000", "130321.968000", "130321.968000", "130321.968000", "130321.968000", "130321.968000", "130321.968000", "130321.984000", "130341.937000", "130341.937000", "130341.937000", "130341.937000", "130341.937000", "130341.953000", "130341.953000", "130341.953000", "130341.953000", "130341.953000", "130341.953000", "130341.953000", "130341.953000", "130341.968000", "130341.968000", "130341.968000", "130341.968000", "130341.968000", "130341.968000", "130341.968000", "130401.937000", "130401.937000", "130401.937000", "130401.937000", "130401.937000", "130401.937000", "130401.953000", "130401.953000", "130401.953000", "130401.953000", "130401.953000", "130401.953000", "130401.953000", "130401.953000", "130401.968000", "130401.968000", "130401.968000", "130401.968000", "130401.968000", "130401.968000", "130421.937000", "130421.937000", "130421.953000", "130421.953000", "130421.953000", "130421.953000", "130421.953000", "130421.953000", "130421.968000", "130421.968000", "130421.968000", "130421.968000", "130421.968000", "130421.984000", "130421.984000", "130421.984000", "130421.984000", "130421.984000", "130421.984000", "130421.984000", "130441.937000", "130441.937000", "130441.937000", "130441.937000", "130441.937000", "130441.937000", "130441.953000", "130441.953000", "130441.953000", "130441.953000", "130441.953000", "130441.953000", "130441.953000", "130441.968000", "130441.968000", "130441.968000", "130441.968000", "130441.968000", "130441.968000", "130441.968000", "130501.937000", "130501.937000", "130501.937000", "130501.937000", "130501.937000", "130501.937000", "130501.953000", "130501.953000", "130501.953000", "130501.953000", "130501.953000", "130501.953000", "130501.953000", "130501.953000", "130501.968000", "130501.968000", "130501.968000", "130501.968000", "130501.968000", "130501.968000", "130521.937000", "130521.937000", "130521.937000", "130521.937000", "130521.937000", "130521.937000", "130521.953000", "130521.953000", "130521.953000", "130521.953000", "130521.953000", "130521.953000", "130521.968000", "130521.968000", "130521.968000", "130521.968000", "130521.968000", "130521.968000", "130521.984000", "130521.984000", "130541.937000", "130541.937000", "130541.937000", "130541.937000", "130541.937000", "130541.937000", "130541.953000", "130541.953000", "130541.953000", "130541.953000", "130541.953000", "130541.953000", "130541.953000", "130541.968000", "130541.968000", "130541.968000", "130541.968000", "130541.968000", "130541.968000", "130541.968000", "130601.937000", "130601.937000", "130601.937000", "130601.937000", "130601.937000", "130601.937000", "130601.953000", "130601.953000", "130601.953000", "130601.953000", "130601.953000", "130601.953000", "130601.953000", "130601.953000", "130601.968000", "130601.968000", "130601.968000", "130601.968000", "130601.968000", "130601.968000", "130621.937000", "130621.937000", "130621.937000", "130621.937000", "130621.937000", "130621.937000", "130621.953000", "130621.953000", "130621.953000", "130621.953000", "130621.953000", "130621.953000", "130621.953000", "130621.953000", "130621.968000", "130621.968000", "130621.968000", "130621.968000", "130621.968000", "130621.968000", "130629.359000", "130629.359000", "130629.359000"],
      "InstanceNumber": [1, 2, 3, 4, 5, 6, 7, 8, 9, 10, 11, 12, 13, 14, 15, 16, 17, 18, 19, 20, 21, 22, 23, 24, 25, 26, 27, 28, 29, 30, 31, 32, 33, 34, 35, 36, 37, 38, 39, 40, 41, 42, 43, 44, 45, 46, 47, 48, 49, 50, 51, 52, 53, 54, 55, 56, 57, 58, 59, 60, 61, 62, 63, 64, 65, 66, 67, 68, 69, 70, 71, 72, 73, 74, 75, 76, 77, 78, 79, 80, 81, 82, 83, 84, 85, 86, 87, 88, 89, 90, 91, 92, 93, 94, 95, 96, 97, 98, 99, 100, 101, 102, 103, 104, 105, 106, 107, 108, 109, 110, 111, 112, 113, 114, 115, 116, 117, 118, 119, 120, 121, 122, 123, 124, 125, 126, 127, 128, 129, 130, 131, 132, 133, 134, 135, 136, 137, 138, 139, 140, 141, 142, 143, 144, 145, 146, 147, 148, 149, 150, 151, 152, 153, 154, 155, 156, 157, 158, 159, 160, 161, 162, 163, 164, 165, 166, 167, 168, 169, 170, 171, 172, 173, 174, 175, 176, 177, 178, 179, 180, 181, 182, 183, 184, 185, 186, 187, 188, 189, 190, 191, 192, 193, 194, 195, 196, 197, 198, 199, 200, 201, 202, 203, 204, 205, 206, 207, 208, 209, 210, 211, 212, 213, 214, 215, 216, 217, 218, 219, 220, 221, 222, 223, 224, 225, 226, 227, 228, 229, 230, 231, 232, 233, 234, 235, 236, 237, 238, 239, 240, 241, 242, 243, 244, 245, 246, 247, 248, 249, 250, 251, 252, 253, 254, 255, 256, 257, 258, 259, 260, 261, 262, 263, 264, 265, 266, 267, 268, 269, 270, 271, 272, 273, 274, 275, 276, 277, 278, 279, 280, 281, 282, 283, 284, 285, 286, 287, 288, 289, 290, 291, 292, 293, 294, 295, 296, 297, 298, 299, 300, 301, 302, 303, 304, 305, 306, 307, 308, 309, 310, 311, 312, 313, 314, 315, 316, 317, 318, 319, 320, 321, 322, 323, 324, 325, 326, 327, 328, 329, 330],
      "LargestImagePixelValue": [1756, 1746, 1751, 1749, 1714, 1723, 1717, 1685, 1728, 1696, 1691, 1674, 1691, 1669, 1695, 1669, 1705, 1678, 1649, 1715, 1680, 1639, 1650, 1652, 1658, 1680, 1657, 1654, 1710, 1659, 1647, 1677, 1664, 1678, 1639, 1671, 1638, 1646, 1690, 1640, 1643, 1670, 1639, 1668, 1652, 1660, 1646, 1665, 1657, 1675, 1677, 1668, 1666, 1626, 1691, 1675, 1630, 1625, 1656, 1642, 1629, 1626, 1643, 1656, 1651, 1672, 1629, 1639, 1626, 1647, 1618, 1625, 1663, 1628, 1636, 1620, 1655, 1627, 1590, 1641, 1621, 1641, 1642, 1648, 1621, 1655, 1656, 1629, 1627, 1617, 1612, 1587, 1625, 1630, 1652, 1623, 1642, 1615, 1610, 1583, 1636, 1607, 1632, 1620, 1615, 1587, 1636, 1615, 1614, 1619, 1630, 1622, 1606, 1619, 1613, 1636, 1608, 1608, 1606, 1620, 1623, 1623, 1614, 1643, 1607, 1613, 1634, 1635, 1613, 1636, 1616, 1627, 1587, 1650, 1618, 1650, 1641, 1635, 1610, 1618, 1597, 1656, 1600, 1614, 1619, 1603, 1631, 1616, 1609, 1621, 1611, 1643, 1607, 1624, 1601, 1625, 1623, 1606, 1621, 1619, 1632, 1619, 1619, 1603, 1595, 1612, 1611, 1619, 1617, 1607, 1614, 1595, 1618, 1624, 1613, 1601, 1623, 1600, 1634, 1628, 1595, 1620, 1625, 1634, 1618, 1628, 1632, 1631, 1618, 1614, 1634, 1634, 1620, 1659, 1612, 1664, 1618, 1626, 1662, 1630, 1612, 1647, 1650, 1625, 1626, 1687, 1641, 1640, 1636, 1616, 1682, 1634, 1626, 1623, 1635, 1618, 1679, 1670, 1629, 1649, 1618, 1719, 1630, 1664, 1635, 1688, 1631, 1647, 1638, 1648, 1626, 1638, 1667, 1645, 1671, 1647, 1665, 1694, 1641, 1674, 1650, 1664, 1633, 1672, 1620, 1695, 1669, 1685, 1638, 1698, 1627, 1674, 1643, 1654, 1657, 1622, 1704, 1681, 1650, 1644, 1693, 1671, 1670, 1660, 1644, 1700, 1680, 1693, 1709, 1658, 1701, 1676, 1712, 1689, 1680, 1706, 1693, 1706, 1685, 1674, 1699, 1702, 1667, 1672, 1692, 1707, 1714, 1654, 1685, 1708, 1669, 1720, 1709, 1689, 1742, 1680, 1698, 1627, 1712, 1660, 1684, 1671, 1707, 1681, 1665, 1708, 1691, 1653, 1667, 1709, 1710, 1679, 1679, 1700, 1656, 1696, 1648, 1689, 1685, 1703, 1683, 1700, 1686, 1688, 1702, 1702, 1691, 1712, 1693, 1722],
      "WindowCenter": [351.0, 350.0, 350.0, 350.0, 349.0, 349.0, 349.0, 349.0, 349.0, 349.0, 350.0, 350.0, 350.0, 350.0, 350.0, 349.0, 350.0, 349.0, 349.0, 350.0, 350.0, 349.0, 349.0, 349.0, 349.0, 349.0, 348.0, 348.0, 349.0, 347.0, 347.0, 349.0, 349.0, 349.0, 349.0, 350.0, 348.0, 349.0, 349.0, 350.0, 350.0, 350.0, 350.0, 349.0, 350.0, 349.0, 349.0, 349.0, 349.0, 350.0, 350.0, 350.0, 350.0, 350.0, 350.0, 349.0, 349.0, 349.0, 349.0, 350.0, 349.0, 348.0, 348.0, 349.0, 349.0, 349.0, 348.0, 349.0, 350.0, 350.0, 350.0, 350.0, 350.0, 350.0, 350.0, 349.0, 350.0, 350.0, 349.0, 350.0, 349.0, 349.0, 348.0, 347.0, 347.0, 348.0, 348.0, 349.0, 350.0, 349.0, 350.0, 349.0, 350.0, 350.0, 351.0, 351.0, 351.0, 350.0, 351.0, 350.0, 349.0, 350.0, 349.0, 349.0, 349.0, 349.0, 349.0, 349.0, 350.0, 349.0, 349.0, 348.0, 348.0, 349.0, 349.0, 349.0, 349.0, 349.0, 348.0, 348.0, 349.0, 349.0, 349.0, 349.0, 348.0, 347.0, 348.0, 348.0, 350.0, 350.0, 350.0, 350.0, 350.0, 350.0, 350.0, 350.0, 350.0, 351.0, 350.0, 350.0, 350.0, 351.0, 350.0, 350.0, 350.0, 350.0, 349.0, 349.0, 349.0, 349.0, 349.0, 350.0, 350.0, 350.0, 349.0, 349.0, 349.0, 349.0, 349.0, 349.0, 349.0, 349.0, 349.0, 349.0, 349.0, 349.0, 349.0, 348.0, 349.0, 348.0, 348.0, 348.0, 348.0, 348.0, 348.0, 347.0, 349.0, 348.0, 349.0, 349.0, 349.0, 350.0, 350.0, 349.0, 349.0, 348.0, 348.0, 349.0, 349.0, 349.0, 349.0, 349.0, 349.0, 349.0, 349.0, 349.0, 349.0, 349.0, 350.0, 350.0, 350.0, 350.0, 349.0, 349.0, 349.0, 350.0, 350.0, 349.0, 349.0, 350.0, 350.0, 350.0, 351.0, 350.0, 351.0, 350.0, 350.0, 351.0, 351.0, 351.0, 351.0, 351.0, 351.0, 350.0, 349.0, 349.0, 350.0, 350.0, 350.0, 350.0, 350.0, 350.0, 350.0, 349.0, 350.0, 350.0, 350.0, 350.0, 349.0, 350.0, 350.0, 350.0, 350.0, 351.0, 350.0, 350.0, 349.0, 349.0, 349.0, 349.0, 349.0, 350.0, 350.0, 350.0, 350.0, 349.0, 349.0, 348.0, 349.0, 348.0, 349.0, 350.0, 350.0, 351.0, 350.0, 351.0, 350.0, 350.0, 351.0, 351.0, 351.0, 351.0, 350.0, 350.0, 350.0, 350.0, 349.0, 349.0, 349.0, 349.0, 350.0, 350.0, 351.0, 351.0, 351.0, 350.0, 350.0, 350.0, 350.0, 350.0, 350.0, 351.0, 351.0, 350.0, 350.0, 349.0, 349.0, 349.0, 350.0, 350.0, 350.0, 350.0, 350.0, 350.0, 350.0, 350.0, 351.0, 351.0, 350.0, 350.0, 350.0, 349.0, 349.0, 349.0, 349.0, 349.0, 349.0, 349.0, 349.0, 350.0, 350.0, 350.0, 350.0, 350.0, 350.0, 351.0, 351.0, 351.0, 351.0, 351.0],
