{
  "AcquisitionMatrixPE": 104,
  "AcquisitionNumber": 1,
  "AcquisitionTime": "13:43:11.977500",
  "BandwidthPerPixelPhaseEncode": 43.054,
  "BaseResolution": 104,
  "CoilString": "C:E1_2",
  "ConversionSoftware": "dcm2niix",
  "ConversionSoftwareVersion": "v1.0.20191031",
  "DerivedVendorReportedEchoSpacing": 0.000669999,
  "DeviceSerialNumber": "18932",
  "DwellTime": 2.8e-06,
  "EchoTime": 0.02,
  "EffectiveEchoSpacing": 0.000223333,
  "FlipAngle": 30,
  "ImageComments": "Unaliased_MB2_PE2",
  "ImageOrientationPatientDICOM": [1, 0, 0, 0, 0.975535, -0.219846],
  "ImageType": [
    "ORIGINAL",
    "PRIMARY",
    "M",
    "MB",
    "ND",
    "MOSAIC"
],
  "ImagingFrequency": 297.228,
  "InPlanePhaseEncodingDirectionDICOM": "COL",
  "InstitutionAddress": "Richmond_Street_North_1151_London_409EF2_Ontario_CA_N6A_5B7",
  "InstitutionName": "Robarts_Reserch_Institute",
  "InstitutionalDepartmentName": "Department",
  "MRAcquisitionType": "2D",
  "MagneticFieldStrength": 6.98,
  "Manufacturer": "Siemens",
  "ManufacturersModelName": "Investigational_Device_7T",
  "Modality": "MR",
  "MultibandAccelerationFactor": 2,
  "ParallelReductionFactorInPlane": 3,
  "PartialFourier": 0.875,
  "PatientPosition": "HFS",
  "PercentPhaseFOV": 100,
  "PhaseEncodingDirection": "j-",
  "PhaseEncodingSteps": 91,
  "PhaseResolution": 1,
  "PixelBandwidth": 1717,
  "ProcedureStepDescription": "Diedrichsen_SeqRep4",
  "ProtocolName": "mbep2d_bold_mb2_p3_AP_2iso",
  "PulseSequenceDetails": "%CustomerSeq%_cmrr_mbep2d_bold",
  "ReceiveCoilName": "CFMM_8Tx32Rx",
  "ReconMatrixPE": 104,
  "RefLinesPE": 36,
  "RepetitionTime": 1,
  "ScanOptions": "PFP_FS",
  "ScanningSequence": "EP",
  "SequenceName": "epfid2d1_104",
  "SequenceVariant": "SK_SS",
  "SeriesDescription": "mbep2d_bold_mb2_p3_AP_2iso",
  "SeriesNumber": 28,
  "ShimSetting": [-74, 2049, 366, 308, 96, -127, -259, -116],
  "SliceThickness": 2,
  "SliceTiming": [0, 0.2275, 0.455, 0.685, 0.9125, 0.1375, 0.365, 0.5925, 0.82, 0.045, 0.2725, 0.5025, 0.73, 0.9575, 0.1825, 0.41, 0.6375, 0.8675, 0.09, 0.32, 0.5475, 0.775, 0, 0.2275, 0.455, 0.685, 0.9125, 0.1375, 0.365, 0.5925, 0.82, 0.045, 0.2725, 0.5025, 0.73, 0.9575, 0.1825, 0.41, 0.6375, 0.8675, 0.09, 0.32, 0.5475, 0.775],
  "SoftwareVersions": "syngo_MR_B17",
  "SpacingBetweenSlices": 2,
  "StationName": "MASTER",
  "TaskName": "dsp",
  "TotalReadoutTime": 0.0230033,
  "TxRefAmp": 120,
  "dcmmeta_affine": [
    [-2.0, 0.0, 0.0, 105.4527816772461],
    [0.0, 1.9510691165924072, -0.4396924078464508, -102.40196990966797],
    [0.0, 0.4396924078464508, 1.9510691165924072, -65.14813232421875],
    [0.0, 0.0, 0.0, 1.0]
],
  "dcmmeta_reorient_transform": [
    [0.0, -1.0, 0.0, 103.0],
    [1.0, 0.0, 0.0, 0.0],
    [0.0, 0.0, 1.0, 0.0],
    [0.0, 0.0, 0.0, 1.0]
],
  "dcmmeta_shape": [104, 104, 44, 330],
  "dcmmeta_slice_dim": 2,
  "dcmmeta_version": 0.6,
  "global": {
    "const": {
      "AcquisitionMatrix": [104, 0, 0, 104],
      "AngioFlag": "N",
      "BitsAllocated": 16,
      "BitsStored": 12,
      "Columns": 728,
      "EchoNumbers": 1,
      "EchoTime": 20.0,
      "EchoTrainLength": 1,
      "FlipAngle": 30.0,
      "HighBit": 11,
      "ImageOrientationPatient": [1.0, 0.0, 0.0, 0.0, 0.97553454431481, -0.2198462027157],
      "ImagePositionPatient": [-729.45278453827, -707.29169876777, 117.32421584434],
      "ImageType": [
        "ORIGINAL",
        "PRIMARY",
        "M",
        "MB",
        "ND",
        "MOSAIC"
],
      "ImagedNucleus": "1H",
      "ImagingFrequency": 297.228101,
      "InPlanePhaseEncodingDirection": "COL",
      "MRAcquisitionType": "2D",
      "MagneticFieldStrength": 6.98,
      "Manufacturer": "SIEMENS",
      "ManufacturerModelName": "Investigational_Device_7T",
      "Modality": "MR",
      "NumberOfAverages": 1.0,
      "NumberOfPhaseEncodingSteps": 91,
      "PercentPhaseFieldOfView": 100.0,
      "PercentSampling": 100.0,
      "PerformedProcedureStepStartTime": "124150.406000",
      "PhotometricInterpretation": "MONOCHROME2",
      "PixelBandwidth": 1717.0,
      "PixelRepresentation": 0,
      "PixelSpacing": [2.0, 2.0],
      "ProtocolName": "mbep2d_bold_mb2_p3_AP 2iso",
      "RepetitionTime": 1000.0,
      "Rows": 728,
      "SAR": 0.0,
      "SamplesPerPixel": 1,
      "ScanOptions": [
        "PFP",
        "FS"
],
      "ScanningSequence": "EP",
      "SequenceName": "epfid2d1_104",
      "SequenceVariant": [
        "SK",
        "SS"
],
      "SeriesDescription": "mbep2d_bold_mb2_p3_AP 2iso",
      "SeriesNumber": 28,
      "SeriesTime": "134341.968000",
      "SliceLocation": -41.041568745608,
      "SliceThickness": 2.0,
      "SmallestImagePixelValue": 0,
      "SoftwareVersions": "syngo MR B17",
      "SpacingBetweenSlices": 1.9999999733392,
      "SpecificCharacterSet": "ISO_IR 100",
      "StudyID": "1",
      "StudyTime": "124150.343000",
      "TransmitCoilName": "CFMM_8Tx32Rx",
      "VariableFlipAngleFlag": "N",
      "WindowCenterWidthExplanation": "Algo1",
      "dBdt": 0.0},
    "slices": {}
  },
  "time": {
    "samples": {
      "AcquisitionNumber": [1, 2, 3, 4, 5, 6, 7, 8, 9, 10, 11, 12, 13, 14, 15, 16, 17, 18, 19, 20, 21, 22, 23, 24, 25, 26, 27, 28, 29, 30, 31, 32, 33, 34, 35, 36, 37, 38, 39, 40, 41, 42, 43, 44, 45, 46, 47, 48, 49, 50, 51, 52, 53, 54, 55, 56, 57, 58, 59, 60, 61, 62, 63, 64, 65, 66, 67, 68, 69, 70, 71, 72, 73, 74, 75, 76, 77, 78, 79, 80, 81, 82, 83, 84, 85, 86, 87, 88, 89, 90, 91, 92, 93, 94, 95, 96, 97, 98, 99, 100, 101, 102, 103, 104, 105, 106, 107, 108, 109, 110, 111, 112, 113, 114, 115, 116, 117, 118, 119, 120, 121, 122, 123, 124, 125, 126, 127, 128, 129, 130, 131, 132, 133, 134, 135, 136, 137, 138, 139, 140, 141, 142, 143, 144, 145, 146, 147, 148, 149, 150, 151, 152, 153, 154, 155, 156, 157, 158, 159, 160, 161, 162, 163, 164, 165, 166, 167, 168, 169, 170, 171, 172, 173, 174, 175, 176, 177, 178, 179, 180, 181, 182, 183, 184, 185, 186, 187, 188, 189, 190, 191, 192, 193, 194, 195, 196, 197, 198, 199, 200, 201, 202, 203, 204, 205, 206, 207, 208, 209, 210, 211, 212, 213, 214, 215, 216, 217, 218, 219, 220, 221, 222, 223, 224, 225, 226, 227, 228, 229, 230, 231, 232, 233, 234, 235, 236, 237, 238, 239, 240, 241, 242, 243, 244, 245, 246, 247, 248, 249, 250, 251, 252, 253, 254, 255, 256, 257, 258, 259, 260, 261, 262, 263, 264, 265, 266, 267, 268, 269, 270, 271, 272, 273, 274, 275, 276, 277, 278, 279, 280, 281, 282, 283, 284, 285, 286, 287, 288, 289, 290, 291, 292, 293, 294, 295, 296, 297, 298, 299, 300, 301, 302, 303, 304, 305, 306, 307, 308, 309, 310, 311, 312, 313, 314, 315, 316, 317, 318, 319, 320, 321, 322, 323, 324, 325, 326, 327, 328, 329, 330],
      "AcquisitionTime": ["134311.977500", "134312.982500", "134313.985000", "134314.990000", "134315.992500", "134316.997500", "134318.002500", "134319.005000", "134320.010000", "134321.012500", "134322.017500", "134323.022500", "134324.025000", "134325.030000", "134326.032500", "134327.037500", "134328.042500", "134329.045000", "134330.050000", "134331.052500", "134332.057500", "134333.062500", "134334.065000", "134335.070000", "134336.072500", "134337.077500", "134338.082500", "134339.085000", "134340.090000", "134341.092500", "134342.097500", "134343.102500", "134344.105000", "134345.110000", "134346.115000", "134347.117500", "134348.122500", "134349.125000", "134350.130000", "134351.135000", "134352.137500", "134353.142500", "134354.145000", "134355.150000", "134356.155000", "134357.157500", "134358.162500", "134359.165000", "134400.170000", "134401.175000", "134402.177500", "134403.182500", "134404.185000", "134405.190000", "134406.195000", "134407.197500", "134408.202500", "134409.205000", "134410.210000", "134411.215000", "134412.217500", "134413.222500", "134414.227500", "134415.230000", "134416.235000", "134417.237500", "134418.242500", "134419.247500", "134420.250000", "134421.255000", "134422.257500", "134423.262500", "134424.267500", "134425.270000", "134426.275000", "134427.277500", "134428.282500", "134429.287500", "134430.290000", "134431.295000", "134432.297500", "134433.302500", "134434.307500", "134435.310000", "134436.315000", "134437.317500", "134438.322500", "134439.327500", "134440.330000", "134441.335000", "134442.337500", "134443.342500", "134444.347500", "134445.350000", "134446.355000", "134447.360000", "134448.362500", "134449.367500", "134450.370000", "134451.375000", "134452.380000", "134453.382500", "134454.387500", "134455.390000", "134456.395000", "134457.400000", "134458.402500", "134459.407500", "134500.410000", "134501.415000", "134502.420000", "134503.422500", "134504.427500", "134505.430000", "134506.435000", "134507.440000", "134508.442500", "134509.447500", "134510.450000", "134511.455000", "134512.460000", "134513.462500", "134514.467500", "134515.470000", "134516.475000", "134517.480000", "134518.482500", "134519.487500", "134520.492500", "134521.495000", "134522.500000", "134523.502500", "134524.507500", "134525.512500", "134526.515000", "134527.520000", "134528.522500", "134529.527500", "134530.532500", "134531.535000", "134532.540000", "134533.542500", "134534.547500", "134535.552500", "134536.555000", "134537.560000", "134538.562500", "134539.567500", "134540.572500", "134541.575000", "134542.580000", "134543.582500", "134544.587500", "134545.592500", "134546.595000", "134547.600000", "134548.605000", "134549.607500", "134550.612500", "134551.615000", "134552.620000", "134553.625000", "134554.627500", "134555.632500", "134556.635000", "134557.640000", "134558.645000", "134559.647500", "134600.652500", "134601.655000", "134602.660000", "134603.665000", "134604.667500", "134605.672500", "134606.675000", "134607.680000", "134608.685000", "134609.687500", "134610.692500", "134611.695000", "134612.700000", "134613.705000", "134614.707500", "134615.712500", "134616.715000", "134617.720000", "134618.725000", "134619.727500", "134620.732500", "134621.737500", "134622.740000", "134623.745000", "134624.747500", "134625.752500", "134626.757500", "134627.760000", "134628.765000", "134629.767500", "134630.772500", "134631.777500", "134632.780000", "134633.785000", "134634.787500", "134635.792500", "134636.797500", "134637.800000", "134638.805000", "134639.807500", "134640.812500", "134641.817500", "134642.820000", "134643.825000", "134644.827500", "134645.832500", "134646.837500", "134647.840000", "134648.845000", "134649.850000", "134650.852500", "134651.857500", "134652.860000", "134653.865000", "134654.870000", "134655.872500", "134656.877500", "134657.880000", "134658.885000", "134659.890000", "134700.892500", "134701.897500", "134702.900000", "134703.905000", "134704.910000", "134705.912500", "134706.917500", "134707.920000", "134708.925000", "134709.930000", "134710.932500", "134711.937500", "134712.940000", "134713.945000", "134714.950000", "134715.952500", "134716.957500", "134717.960000", "134718.965000", "134719.970000", "134720.972500", "134721.977500", "134722.982500", "134723.985000", "134724.990000", "134725.992500", "134726.997500", "134728.002500", "134729.005000", "134730.010000", "134731.012500", "134732.017500", "134733.022500", "134734.025000", "134735.030000", "134736.032500", "134737.037500", "134738.042500", "134739.045000", "134740.050000", "134741.052500", "134742.057500", "134743.062500", "134744.065000", "134745.070000", "134746.072500", "134747.077500", "134748.082500", "134749.085000", "134750.090000", "134751.092500", "134752.097500", "134753.102500", "134754.105000", "134755.110000", "134756.115000", "134757.117500", "134758.122500", "134759.125000", "134800.130000", "134801.135000", "134802.137500", "134803.142500", "134804.145000", "134805.150000", "134806.155000", "134807.157500", "134808.162500", "134809.165000", "134810.170000", "134811.175000", "134812.177500", "134813.182500", "134814.185000", "134815.190000", "134816.195000", "134817.197500", "134818.202500", "134819.205000", "134820.210000", "134821.215000", "134822.217500", "134823.222500", "134824.227500", "134825.230000", "134826.235000", "134827.237500", "134828.242500", "134829.247500", "134830.250000", "134831.255000", "134832.257500", "134833.262500", "134834.267500", "134835.270000", "134836.275000", "134837.277500", "134838.282500", "134839.287500", "134840.290000", "134841.295000", "134842.297500"],
      "ContentTime": ["134341.968000", "134341.968000", "134341.968000", "134341.968000", "134341.968000", "134341.984000", "134341.984000", "134341.984000", "134341.984000", "134341.984000", "134341.984000", "134341.984000", "134342.000000", "134342.000000", "134342.000000", "134342.015000", "134342.015000", "134342.015000", "134342.015000", "134342.015000", "134342.015000", "134342.031000", "134342.031000", "134342.031000", "134342.031000", "134342.031000", "134342.031000", "134342.046000", "134401.937000", "134401.937000", "134401.937000", "134401.937000", "134401.937000", "134401.953000", "134401.953000", "134401.953000", "134401.953000", "134401.953000", "134401.953000", "134401.953000", "134401.953000", "134401.968000", "134401.968000", "134401.968000", "134401.968000", "134401.968000", "134401.968000", "134401.968000", "134421.937000", "134421.937000", "134421.937000", "134421.937000", "134421.937000", "134421.937000", "134421.953000", "134421.953000", "134421.953000", "134421.953000", "134421.953000", "134421.953000", "134421.968000", "134421.968000", "134421.968000", "134421.968000", "134421.968000", "134421.968000", "134421.968000", "134421.984000", "134441.937000", "134441.937000", "134441.937000", "134441.937000", "134441.937000", "134441.937000", "134441.953000", "134441.953000", "134441.953000", "134441.953000", "134441.953000", "134441.953000", "134441.968000", "134441.968000", "134441.968000", "134441.968000", "134441.968000", "134441.968000", "134441.968000", "134441.968000", "134501.937000", "134501.937000", "134501.937000", "134501.937000", "134501.937000", "134501.937000", "134501.953000", "134501.953000", "134501.953000", "134501.953000", "134501.953000", "134501.953000", "134501.953000", "134501.953000", "134501.968000", "134501.968000", "134501.968000", "134501.968000", "134501.968000", "134501.968000", "134521.937000", "134521.937000", "134521.937000", "134521.937000", "134521.937000", "134521.953000", "134521.953000", "134521.953000", "134521.953000", "134521.953000", "134521.953000", "134521.953000", "134521.968000", "134521.968000", "134521.968000", "134521.968000", "134521.968000", "134521.968000", "134521.968000", "134521.968000", "134541.937000", "134541.937000", "134541.937000", "134541.937000", "134541.937000", "134541.937000", "134541.953000", "134541.953000", "134541.953000", "134541.953000", "134541.953000", "134541.953000", "134541.953000", "134541.953000", "134541.968000", "134541.968000", "134541.968000", "134541.968000", "134541.968000", "134541.968000", "134601.937000", "134601.937000", "134601.937000", "134601.937000", "134601.937000", "134601.953000", "134601.953000", "134601.953000", "134601.953000", "134601.953000", "134601.953000", "134601.953000", "134601.968000", "134601.968000", "134601.968000", "134601.968000", "134601.968000", "134601.968000", "134601.968000", "134601.984000", "134621.937000", "134621.937000", "134621.937000", "134621.937000", "134621.937000", "134621.937000", "134621.953000", "134621.953000", "134621.953000", "134621.953000", "134621.953000", "134621.953000", "134621.968000", "134621.968000", "134621.968000", "134621.968000", "134621.968000", "134621.968000", "134621.968000", "134621.968000", "134641.937000", "134641.937000", "134641.937000", "134641.937000", "134641.937000", "134641.937000", "134641.953000", "134641.953000", "134641.953000", "134641.953000", "134641.953000", "134641.953000", "134641.953000", "134641.968000", "134641.968000", "134641.968000", "134641.968000", "134641.968000", "134641.968000", "134641.968000", "134701.937000", "134701.937000", "134701.937000", "134701.937000", "134701.937000", "134701.937000", "134701.953000", "134701.953000", "134701.953000", "134701.953000", "134701.953000", "134701.953000", "134701.953000", "134701.953000", "134701.968000", "134701.968000", "134701.968000", "134701.968000", "134701.968000", "134701.968000", "134721.937000", "134721.937000", "134721.937000", "134721.937000", "134721.953000", "134721.953000", "134721.953000", "134721.953000", "134721.953000", "134721.953000", "134721.953000", "134721.953000", "134721.968000", "134721.968000", "134721.968000", "134721.968000", "134721.968000", "134721.968000", "134721.984000", "134721.984000", "134741.937000", "134741.937000", "134741.937000", "134741.937000", "134741.937000", "134741.937000", "134741.953000", "134741.953000", "134741.953000", "134741.953000", "134741.953000", "134741.953000", "134741.968000", "134741.968000", "134741.968000", "134741.968000", "134741.968000", "134741.968000", "134741.968000", "134741.968000", "134801.937000", "134801.937000", "134801.937000", "134801.937000", "134801.937000", "134801.953000", "134801.953000", "134801.953000", "134801.953000", "134801.953000", "134801.953000", "134801.968000", "134801.968000", "134801.968000", "134801.968000", "134801.968000", "134801.968000", "134801.968000", "134801.968000", "134801.984000", "134821.937000", "134821.937000", "134821.937000", "134821.937000", "134821.937000", "134821.937000", "134821.953000", "134821.953000", "134821.953000", "134821.953000", "134821.953000", "134821.953000", "134821.968000", "134821.968000", "134821.968000", "134821.968000", "134821.968000", "134821.968000", "134821.968000", "134821.984000", "134841.937000", "134841.937000", "134841.937000", "134841.937000", "134841.937000", "134841.937000", "134841.953000", "134841.953000", "134841.953000", "134841.953000", "134841.953000", "134841.953000", "134841.953000", "134841.953000", "134841.968000", "134841.968000", "134841.968000", "134841.968000", "134841.968000", "134841.968000", "134848.421000", "134848.421000"],
      "InstanceCreationTime": ["134341.968000", "134341.968000", "134341.968000", "134341.968000", "134341.968000", "134341.984000", "134341.984000", "134341.984000", "134341.984000", "134341.984000", "134341.984000", "134341.984000", "134342.000000", "134342.000000", "134342.000000", "134342.015000", "134342.015000", "134342.015000", "134342.015000", "134342.015000", "134342.015000", "134342.031000", "134342.031000", "134342.031000", "134342.031000", "134342.031000", "134342.031000", "134342.046000", "134401.937000", "134401.937000", "134401.937000", "134401.937000", "134401.937000", "134401.953000", "134401.953000", "134401.953000", "134401.953000", "134401.953000", "134401.953000", "134401.953000", "134401.953000", "134401.968000", "134401.968000", "134401.968000", "134401.968000", "134401.968000", "134401.968000", "134401.968000", "134421.937000", "134421.937000", "134421.937000", "134421.937000", "134421.937000", "134421.937000", "134421.953000", "134421.953000", "134421.953000", "134421.953000", "134421.953000", "134421.953000", "134421.968000", "134421.968000", "134421.968000", "134421.968000", "134421.968000", "134421.968000", "134421.968000", "134421.984000", "134441.937000", "134441.937000", "134441.937000", "134441.937000", "134441.937000", "134441.937000", "134441.953000", "134441.953000", "134441.953000", "134441.953000", "134441.953000", "134441.953000", "134441.968000", "134441.968000", "134441.968000", "134441.968000", "134441.968000", "134441.968000", "134441.968000", "134441.968000", "134501.937000", "134501.937000", "134501.937000", "134501.937000", "134501.937000", "134501.937000", "134501.953000", "134501.953000", "134501.953000", "134501.953000", "134501.953000", "134501.953000", "134501.953000", "134501.953000", "134501.968000", "134501.968000", "134501.968000", "134501.968000", "134501.968000", "134501.968000", "134521.937000", "134521.937000", "134521.937000", "134521.937000", "134521.937000", "134521.953000", "134521.953000", "134521.953000", "134521.953000", "134521.953000", "134521.953000", "134521.953000", "134521.968000", "134521.968000", "134521.968000", "134521.968000", "134521.968000", "134521.968000", "134521.968000", "134521.968000", "134541.937000", "134541.937000", "134541.937000", "134541.937000", "134541.937000", "134541.937000", "134541.953000", "134541.953000", "134541.953000", "134541.953000", "134541.953000", "134541.953000", "134541.953000", "134541.953000", "134541.968000", "134541.968000", "134541.968000", "134541.968000", "134541.968000", "134541.968000", "134601.937000", "134601.937000", "134601.937000", "134601.937000", "134601.937000", "134601.953000", "134601.953000", "134601.953000", "134601.953000", "134601.953000", "134601.953000", "134601.953000", "134601.968000", "134601.968000", "134601.968000", "134601.968000", "134601.968000", "134601.968000", "134601.968000", "134601.984000", "134621.937000", "134621.937000", "134621.937000", "134621.937000", "134621.937000", "134621.937000", "134621.953000", "134621.953000", "134621.953000", "134621.953000", "134621.953000", "134621.953000", "134621.968000", "134621.968000", "134621.968000", "134621.968000", "134621.968000", "134621.968000", "134621.968000", "134621.968000", "134641.937000", "134641.937000", "134641.937000", "134641.937000", "134641.937000", "134641.937000", "134641.953000", "134641.953000", "134641.953000", "134641.953000", "134641.953000", "134641.953000", "134641.953000", "134641.968000", "134641.968000", "134641.968000", "134641.968000", "134641.968000", "134641.968000", "134641.968000", "134701.937000", "134701.937000", "134701.937000", "134701.937000", "134701.937000", "134701.937000", "134701.953000", "134701.953000", "134701.953000", "134701.953000", "134701.953000", "134701.953000", "134701.953000", "134701.953000", "134701.968000", "134701.968000", "134701.968000", "134701.968000", "134701.968000", "134701.968000", "134721.937000", "134721.937000", "134721.937000", "134721.937000", "134721.953000", "134721.953000", "134721.953000", "134721.953000", "134721.953000", "134721.953000", "134721.953000", "134721.953000", "134721.968000", "134721.968000", "134721.968000", "134721.968000", "134721.968000", "134721.968000", "134721.984000", "134721.984000", "134741.937000", "134741.937000", "134741.937000", "134741.937000", "134741.937000", "134741.937000", "134741.953000", "134741.953000", "134741.953000", "134741.953000", "134741.953000", "134741.953000", "134741.968000", "134741.968000", "134741.968000", "134741.968000", "134741.968000", "134741.968000", "134741.968000", "134741.968000", "134801.937000", "134801.937000", "134801.937000", "134801.937000", "134801.937000", "134801.953000", "134801.953000", "134801.953000", "134801.953000", "134801.953000", "134801.953000", "134801.968000", "134801.968000", "134801.968000", "134801.968000", "134801.968000", "134801.968000", "134801.968000", "134801.968000", "134801.984000", "134821.937000", "134821.937000", "134821.937000", "134821.937000", "134821.937000", "134821.937000", "134821.953000", "134821.953000", "134821.953000", "134821.953000", "134821.953000", "134821.953000", "134821.968000", "134821.968000", "134821.968000", "134821.968000", "134821.968000", "134821.968000", "134821.968000", "134821.984000", "134841.937000", "134841.937000", "134841.937000", "134841.937000", "134841.937000", "134841.937000", "134841.953000", "134841.953000", "134841.953000", "134841.953000", "134841.953000", "134841.953000", "134841.953000", "134841.953000", "134841.968000", "134841.968000", "134841.968000", "134841.968000", "134841.968000", "134841.968000", "134848.421000", "134848.421000"],
      "InstanceNumber": [1, 2, 3, 4, 5, 6, 7, 8, 9, 10, 11, 12, 13, 14, 15, 16, 17, 18, 19, 20, 21, 22, 23, 24, 25, 26, 27, 28, 29, 30, 31, 32, 33, 34, 35, 36, 37, 38, 39, 40, 41, 42, 43, 44, 45, 46, 47, 48, 49, 50, 51, 52, 53, 54, 55, 56, 57, 58, 59, 60, 61, 62, 63, 64, 65, 66, 67, 68, 69, 70, 71, 72, 73, 74, 75, 76, 77, 78, 79, 80, 81, 82, 83, 84, 85, 86, 87, 88, 89, 90, 91, 92, 93, 94, 95, 96, 97, 98, 99, 100, 101, 102, 103, 104, 105, 106, 107, 108, 109, 110, 111, 112, 113, 114, 115, 116, 117, 118, 119, 120, 121, 122, 123, 124, 125, 126, 127, 128, 129, 130, 131, 132, 133, 134, 135, 136, 137, 138, 139, 140, 141, 142, 143, 144, 145, 146, 147, 148, 149, 150, 151, 152, 153, 154, 155, 156, 157, 158, 159, 160, 161, 162, 163, 164, 165, 166, 167, 168, 169, 170, 171, 172, 173, 174, 175, 176, 177, 178, 179, 180, 181, 182, 183, 184, 185, 186, 187, 188, 189, 190, 191, 192, 193, 194, 195, 196, 197, 198, 199, 200, 201, 202, 203, 204, 205, 206, 207, 208, 209, 210, 211, 212, 213, 214, 215, 216, 217, 218, 219, 220, 221, 222, 223, 224, 225, 226, 227, 228, 229, 230, 231, 232, 233, 234, 235, 236, 237, 238, 239, 240, 241, 242, 243, 244, 245, 246, 247, 248, 249, 250, 251, 252, 253, 254, 255, 256, 257, 258, 259, 260, 261, 262, 263, 264, 265, 266, 267, 268, 269, 270, 271, 272, 273, 274, 275, 276, 277, 278, 279, 280, 281, 282, 283, 284, 285, 286, 287, 288, 289, 290, 291, 292, 293, 294, 295, 296, 297, 298, 299, 300, 301, 302, 303, 304, 305, 306, 307, 308, 309, 310, 311, 312, 313, 314, 315, 316, 317, 318, 319, 320, 321, 322, 323, 324, 325, 326, 327, 328, 329, 330],
      "LargestImagePixelValue": [1627, 1609, 1601, 1594, 1589, 1579, 1581, 1603, 1569, 1563, 1607, 1594, 1589, 1606, 1563, 1580, 1540, 1585, 1605, 1600, 1592, 1588, 1553, 1591, 1576, 1599, 1613, 1594, 1590, 1570, 1594, 1584, 1561, 1609, 1583, 1592, 1578, 1583, 1595, 1572, 1606, 1559, 1601, 1580, 1589, 1584, 1611, 1596, 1585, 1612, 1550, 1577, 1588, 1589, 1590, 1563, 1572, 1573, 1579, 1589, 1603, 1548, 1575, 1577, 1565, 1581, 1565, 1574, 1585, 1577, 1577, 1591, 1579, 1608, 1595, 1577, 1564, 1555, 1578, 1569, 1590, 1563, 1593, 1581, 1548, 1587, 1551, 1570, 1613, 1577, 1544, 1570, 1571, 1570, 1534, 1566, 1549, 1581, 1562, 1579, 1558, 1582, 1550, 1568, 1520, 1581, 1559, 1537, 1583, 1535, 1548, 1528, 1552, 1564, 1517, 1538, 1569, 1544, 1532, 1538, 1581, 1554, 1556, 1528, 1575, 1559, 1531, 1545, 1523, 1583, 1521, 1532, 1544, 1549, 1540, 1546, 1547, 1531, 1552, 1546, 1554, 1575, 1584, 1556, 1549, 1570, 1559, 1537, 1533, 1524, 1551, 1534, 1501, 1536, 1531, 1528, 1537, 1531, 1549, 1518, 1538, 1540, 1583, 1531, 1544, 1554, 1585, 1596, 1536, 1559, 1585, 1599, 1559, 1571, 1528, 1583, 1563, 1547, 1561, 1573, 1504, 1574, 1558, 1574, 1541, 1546, 1562, 1562, 1565, 1594, 1548, 1556, 1562, 1572, 1546, 1578, 1526, 1560, 1561, 1526, 1540, 1543, 1552, 1532, 1556, 1569, 1563, 1587, 1578, 1571, 1557, 1565, 1565, 1536, 1536, 1547, 1565, 1563, 1561, 1562, 1562, 1532, 1578, 1571, 1528, 1567, 1515, 1572, 1542, 1525, 1531, 1569, 1549, 1510, 1548, 1567, 1566, 1552, 1583, 1575, 1537, 1552, 1566, 1566, 1541, 1554, 1568, 1537, 1569, 1550, 1557, 1571, 1556, 1592, 1536, 1548, 1522, 1560, 1527, 1539, 1581, 1551, 1567, 1596, 1534, 1534, 1534, 1555, 1602, 1537, 1545, 1555, 1575, 1551, 1583, 1569, 1585, 1570, 1605, 1558, 1586, 1525, 1548, 1534, 1578, 1549, 1558, 1534, 1566, 1559, 1545, 1553, 1551, 1562, 1534, 1579, 1562, 1566, 1556, 1581, 1567, 1553, 1630, 1555, 1569, 1539, 1582, 1577, 1600, 1616, 1566, 1588, 1564, 1572, 1573, 1604, 1560, 1621, 1591, 1623, 1553, 1558, 1546, 1562, 1576, 1546, 1578, 1533, 1597, 1555],
      "WindowCenter": [345.0, 343.0, 343.0, 343.0, 343.0, 343.0, 343.0, 342.0, 342.0, 342.0, 343.0, 343.0, 344.0, 345.0, 344.0, 344.0, 344.0, 343.0, 343.0, 344.0, 344.0, 345.0, 344.0, 344.0, 344.0, 344.0, 344.0, 343.0, 343.0, 343.0, 343.0, 343.0, 343.0, 343.0, 343.0, 343.0, 343.0, 343.0, 343.0, 343.0, 343.0, 343.0, 344.0, 344.0, 344.0, 344.0, 345.0, 345.0, 345.0, 345.0, 344.0, 344.0, 344.0, 343.0, 344.0, 345.0, 345.0, 345.0, 344.0, 343.0, 342.0, 342.0, 342.0, 343.0, 343.0, 344.0, 343.0, 343.0, 343.0, 343.0, 344.0, 344.0, 344.0, 344.0, 344.0, 343.0, 343.0, 343.0, 343.0, 342.0, 343.0, 343.0, 344.0, 345.0, 344.0, 344.0, 344.0, 344.0, 344.0, 343.0, 343.0, 342.0, 343.0, 342.0, 343.0, 343.0, 344.0, 345.0, 344.0, 344.0, 343.0, 343.0, 343.0, 343.0, 343.0, 344.0, 345.0, 344.0, 344.0, 343.0, 343.0, 343.0, 343.0, 343.0, 342.0, 342.0, 342.0, 341.0, 341.0, 342.0, 343.0, 344.0, 344.0, 343.0, 343.0, 342.0, 342.0, 342.0, 342.0, 343.0, 342.0, 342.0, 343.0, 342.0, 342.0, 342.0, 342.0, 342.0, 343.0, 343.0, 343.0, 343.0, 343.0, 343.0, 343.0, 344.0, 344.0, 344.0, 344.0, 343.0, 343.0, 343.0, 342.0, 343.0, 343.0, 342.0, 343.0, 342.0, 342.0, 342.0, 342.0, 342.0, 342.0, 342.0, 342.0, 342.0, 343.0, 344.0, 344.0, 343.0, 342.0, 342.0, 342.0, 344.0, 342.0, 342.0, 342.0, 342.0, 343.0, 343.0, 342.0, 342.0, 342.0, 342.0, 341.0, 341.0, 342.0, 343.0, 343.0, 345.0, 345.0, 345.0, 344.0, 345.0, 345.0, 345.0, 345.0, 345.0, 345.0, 344.0, 344.0, 343.0, 343.0, 343.0, 342.0, 342.0, 342.0, 342.0, 343.0, 342.0, 342.0, 342.0, 343.0, 342.0, 343.0, 343.0, 345.0, 345.0, 345.0, 345.0, 344.0, 344.0, 344.0, 344.0, 342.0, 343.0, 342.0, 343.0, 343.0, 343.0, 343.0, 343.0, 344.0, 343.0, 343.0, 342.0, 342.0, 342.0, 343.0, 343.0, 343.0, 344.0, 344.0, 344.0, 344.0, 343.0, 343.0, 343.0, 343.0, 344.0, 344.0, 344.0, 344.0, 344.0, 343.0, 342.0, 342.0, 342.0, 342.0, 342.0, 343.0, 343.0, 343.0, 343.0, 343.0, 343.0, 343.0, 344.0, 344.0, 343.0, 343.0, 342.0, 343.0, 343.0, 343.0, 343.0, 344.0, 344.0, 345.0, 344.0, 344.0, 344.0, 343.0, 343.0, 343.0, 343.0, 343.0, 343.0, 344.0, 344.0, 343.0, 344.0, 344.0, 343.0, 342.0, 342.0, 342.0, 343.0, 343.0, 343.0, 342.0, 342.0, 344.0, 343.0, 343.0, 343.0, 344.0, 344.0, 344.0, 344.0, 343.0, 344.0, 344.0, 344.0, 343.0, 343.0, 342.0, 344.0, 343.0, 344.0, 344.0, 344.0, 343.0, 343.0, 344.0, 343.0, 343.0, 342.0, 342.0, 342.0],
