{
  "AcquisitionMatrixPE": 104,
  "AcquisitionNumber": 1,
  "AcquisitionTime": "12:02:14.700000",
  "BandwidthPerPixelPhaseEncode": 43.054,
  "BaseResolution": 104,
  "CoilString": "C:E1_2",
  "ConversionSoftware": "dcm2niix",
  "ConversionSoftwareVersion": "v1.0.20191031",
  "DerivedVendorReportedEchoSpacing": 0.000669999,
  "DeviceSerialNumber": "18932",
  "DwellTime": 2.8e-06,
  "EchoTime": 0.02,
  "EffectiveEchoSpacing": 0.000223333,
  "FlipAngle": 30,
  "ImageComments": "Unaliased_MB2_PE2",
  "ImageOrientationPatientDICOM": [1, 0, 0, 0, 0.991216, -0.132256],
  "ImageType": [
    "ORIGINAL",
    "PRIMARY",
    "M",
    "MB",
    "ND",
    "MOSAIC"
],
  "ImagingFrequency": 297.229,
  "InPlanePhaseEncodingDirectionDICOM": "COL",
  "InstitutionAddress": "Richmond_Street_North_1151_London_409EF2_Ontario_CA_N6A_5B7",
  "InstitutionName": "Robarts_Reserch_Institute",
  "InstitutionalDepartmentName": "Department",
  "MRAcquisitionType": "2D",
  "MagneticFieldStrength": 6.98,
  "Manufacturer": "Siemens",
  "ManufacturersModelName": "Investigational_Device_7T",
  "Modality": "MR",
  "MultibandAccelerationFactor": 2,
  "ParallelReductionFactorInPlane": 3,
  "PartialFourier": 0.875,
  "PatientPosition": "HFS",
  "PercentPhaseFOV": 100,
  "PhaseEncodingDirection": "j-",
  "PhaseEncodingSteps": 91,
  "PhaseResolution": 1,
  "PixelBandwidth": 1717,
  "ProcedureStepDescription": "Diedrichsen_SeqRep4",
  "ProtocolName": "mbep2d_bold_mb2_p3_AP_2iso",
  "PulseSequenceDetails": "%CustomerSeq%_cmrr_mbep2d_bold",
  "ReceiveCoilName": "CFMM_8Tx32Rx",
  "ReconMatrixPE": 104,
  "RefLinesPE": 36,
  "RepetitionTime": 1,
  "ScanOptions": "PFP_FS",
  "ScanningSequence": "EP",
  "SequenceName": "epfid2d1_104",
  "SequenceVariant": "SK_SS",
  "SeriesDescription": "mbep2d_bold_mb2_p3_AP_2iso",
  "SeriesNumber": 32,
  "ShimSetting": [13, 2083, 18, 1313, 185, 69, 53, -49],
  "SliceThickness": 2,
  "SliceTiming": [0, 0.2275, 0.4575, 0.685, 0.9125, 0.1375, 0.365, 0.5925, 0.8225, 0.045, 0.275, 0.5025, 0.73, 0.9575, 0.1825, 0.41, 0.64, 0.8675, 0.0925, 0.32, 0.5475, 0.775, 0, 0.2275, 0.4575, 0.685, 0.9125, 0.1375, 0.365, 0.5925, 0.8225, 0.045, 0.275, 0.5025, 0.73, 0.9575, 0.1825, 0.41, 0.64, 0.8675, 0.0925, 0.32, 0.5475, 0.775],
  "SoftwareVersions": "syngo_MR_B17",
  "SpacingBetweenSlices": 2,
  "StationName": "MASTER",
  "TaskName": "dsp",
  "TotalReadoutTime": 0.0230033,
  "TxRefAmp": 120,
  "dcmmeta_affine": [
    [-2.0, 0.0, 0.0, 105.4527816772461],
    [0.0, 1.9824310541152954, -0.2645128071308136, -100.50387573242188],
    [0.0, 0.2645128071308136, 1.9824310541152954, -20.56864356994629],
    [0.0, 0.0, 0.0, 1.0]
],
  "dcmmeta_reorient_transform": [
    [0.0, -1.0, 0.0, 103.0],
    [1.0, 0.0, 0.0, 0.0],
    [0.0, 0.0, 1.0, 0.0],
    [0.0, 0.0, 0.0, 1.0]
],
  "dcmmeta_shape": [104, 104, 44, 330],
  "dcmmeta_slice_dim": 2,
  "dcmmeta_version": 0.6,
  "global": {
    "const": {
      "AcquisitionMatrix": [104, 0, 0, 104],
      "AngioFlag": "N",
      "BitsAllocated": 16,
      "BitsStored": 12,
      "Columns": 728,
      "EchoNumbers": 1,
      "EchoTime": 20.0,
      "EchoTrainLength": 1,
      "FlipAngle": 30.0,
      "HighBit": 11,
      "ImageOrientationPatient": [1.0, 0.0, 0.0, 0.0, 0.99121553937119, -0.132256396855],
      "ImagePositionPatient": [-729.45278453827, -722.20502355071, 89.20416522268],
      "ImageType": [
        "ORIGINAL",
        "PRIMARY",
        "M",
        "MB",
        "ND",
        "MOSAIC"
],
      "ImagedNucleus": "1H",
      "ImagingFrequency": 297.22882,
      "InPlanePhaseEncodingDirection": "COL",
      "MRAcquisitionType": "2D",
      "MagneticFieldStrength": 6.98,
      "Manufacturer": "SIEMENS",
      "ManufacturerModelName": "Investigational_Device_7T",
      "Modality": "MR",
      "NumberOfAverages": 1.0,
      "NumberOfPhaseEncodingSteps": 91,
      "PercentPhaseFieldOfView": 100.0,
      "PercentSampling": 100.0,
      "PerformedProcedureStepStartTime": "104742.937000",
      "PhotometricInterpretation": "MONOCHROME2",
      "PixelBandwidth": 1717.0,
      "PixelRepresentation": 0,
      "PixelSpacing": [2.0, 2.0],
      "ProtocolName": "mbep2d_bold_mb2_p3_AP 2iso",
      "RepetitionTime": 1000.0,
      "Rows": 728,
      "SAR": 0.0,
      "SamplesPerPixel": 1,
      "ScanOptions": [
        "PFP",
        "FS"
],
      "ScanningSequence": "EP",
      "SequenceName": "epfid2d1_104",
      "SequenceVariant": [
        "SK",
        "SS"
],
      "SeriesDescription": "mbep2d_bold_mb2_p3_AP 2iso",
      "SeriesNumber": 32,
      "SeriesTime": "120254.531000",
      "SliceLocation": -7.0956794600561,
      "SliceThickness": 2.0,
      "SmallestImagePixelValue": 0,
      "SoftwareVersions": "syngo MR B17",
      "SpacingBetweenSlices": 2.000000032963,
      "SpecificCharacterSet": "ISO_IR 100",
      "StudyID": "1",
      "StudyTime": "104742.875000",
      "TransmitCoilName": "CFMM_8Tx32Rx",
      "VariableFlipAngleFlag": "N",
      "WindowCenterWidthExplanation": "Algo1",
      "dBdt": 0.0},
    "slices": {}
  },
  "time": {
    "samples": {
      "AcquisitionNumber": [1, 2, 3, 4, 5, 6, 7, 8, 9, 10, 11, 12, 13, 14, 15, 16, 17, 18, 19, 20, 21, 22, 23, 24, 25, 26, 27, 28, 29, 30, 31, 32, 33, 34, 35, 36, 37, 38, 39, 40, 41, 42, 43, 44, 45, 46, 47, 48, 49, 50, 51, 52, 53, 54, 55, 56, 57, 58, 59, 60, 61, 62, 63, 64, 65, 66, 67, 68, 69, 70, 71, 72, 73, 74, 75, 76, 77, 78, 79, 80, 81, 82, 83, 84, 85, 86, 87, 88, 89, 90, 91, 92, 93, 94, 95, 96, 97, 98, 99, 100, 101, 102, 103, 104, 105, 106, 107, 108, 109, 110, 111, 112, 113, 114, 115, 116, 117, 118, 119, 120, 121, 122, 123, 124, 125, 126, 127, 128, 129, 130, 131, 132, 133, 134, 135, 136, 137, 138, 139, 140, 141, 142, 143, 144, 145, 146, 147, 148, 149, 150, 151, 152, 153, 154, 155, 156, 157, 158, 159, 160, 161, 162, 163, 164, 165, 166, 167, 168, 169, 170, 171, 172, 173, 174, 175, 176, 177, 178, 179, 180, 181, 182, 183, 184, 185, 186, 187, 188, 189, 190, 191, 192, 193, 194, 195, 196, 197, 198, 199, 200, 201, 202, 203, 204, 205, 206, 207, 208, 209, 210, 211, 212, 213, 214, 215, 216, 217, 218, 219, 220, 221, 222, 223, 224, 225, 226, 227, 228, 229, 230, 231, 232, 233, 234, 235, 236, 237, 238, 239, 240, 241, 242, 243, 244, 245, 246, 247, 248, 249, 250, 251, 252, 253, 254, 255, 256, 257, 258, 259, 260, 261, 262, 263, 264, 265, 266, 267, 268, 269, 270, 271, 272, 273, 274, 275, 276, 277, 278, 279, 280, 281, 282, 283, 284, 285, 286, 287, 288, 289, 290, 291, 292, 293, 294, 295, 296, 297, 298, 299, 300, 301, 302, 303, 304, 305, 306, 307, 308, 309, 310, 311, 312, 313, 314, 315, 316, 317, 318, 319, 320, 321, 322, 323, 324, 325, 326, 327, 328, 329, 330],
      "AcquisitionTime": ["120214.700000", "120215.705000", "120216.707500", "120217.712500", "120218.717500", "120219.720000", "120220.725000", "120221.727500", "120222.732500", "120223.737500", "120224.740000", "120225.745000", "120226.750000", "120227.752500", "120228.757500", "120229.760000", "120230.765000", "120231.770000", "120232.772500", "120233.777500", "120234.780000", "120235.785000", "120236.790000", "120237.792500", "120238.797500", "120239.800000", "120240.805000", "120241.810000", "120242.812500", "120243.817500", "120244.820000", "120245.825000", "120246.830000", "120247.832500", "120248.837500", "120249.840000", "120250.845000", "120251.850000", "120252.852500", "120253.857500", "120254.860000", "120255.865000", "120256.870000", "120257.872500", "120258.877500", "120259.882500", "120300.885000", "120301.890000", "120302.892500", "120303.897500", "120304.902500", "120305.905000", "120306.910000", "120307.912500", "120308.917500", "120309.922500", "120310.925000", "120311.930000", "120312.932500", "120313.937500", "120314.942500", "120315.945000", "120316.950000", "120317.952500", "120318.957500", "120319.962500", "120320.965000", "120321.970000", "120322.972500", "120323.977500", "120324.982500", "120325.985000", "120326.990000", "120327.995000", "120328.997500", "120330.002500", "120331.005000", "120332.010000", "120333.015000", "120334.017500", "120335.022500", "120336.025000", "120337.030000", "120338.035000", "120339.037500", "120340.042500", "120341.045000", "120342.050000", "120343.055000", "120344.057500", "120345.062500", "120346.065000", "120347.070000", "120348.075000", "120349.077500", "120350.082500", "120351.085000", "120352.090000", "120353.095000", "120354.097500", "120355.102500", "120356.105000", "120357.110000", "120358.115000", "120359.117500", "120400.122500", "120401.127500", "120402.130000", "120403.135000", "120404.137500", "120405.142500", "120406.147500", "120407.150000", "120408.155000", "120409.157500", "120410.162500", "120411.167500", "120412.170000", "120413.175000", "120414.177500", "120415.182500", "120416.187500", "120417.190000", "120418.195000", "120419.197500", "120420.202500", "120421.207500", "120422.210000", "120423.215000", "120424.217500", "120425.222500", "120426.227500", "120427.230000", "120428.235000", "120429.240000", "120430.242500", "120431.247500", "120432.250000", "120433.255000", "120434.260000", "120435.262500", "120436.267500", "120437.270000", "120438.275000", "120439.280000", "120440.282500", "120441.287500", "120442.290000", "120443.295000", "120444.300000", "120445.302500", "120446.307500", "120447.310000", "120448.315000", "120449.320000", "120450.322500", "120451.327500", "120452.330000", "120453.335000", "120454.340000", "120455.342500", "120456.347500", "120457.350000", "120458.355000", "120459.360000", "120500.362500", "120501.367500", "120502.372500", "120503.375000", "120504.380000", "120505.382500", "120506.387500", "120507.392500", "120508.395000", "120509.400000", "120510.402500", "120511.407500", "120512.412500", "120513.415000", "120514.420000", "120515.422500", "120516.427500", "120517.432500", "120518.435000", "120519.440000", "120520.442500", "120521.447500", "120522.452500", "120523.455000", "120524.460000", "120525.462500", "120526.467500", "120527.472500", "120528.475000", "120529.480000", "120530.482500", "120531.487500", "120532.492500", "120533.495000", "120534.500000", "120535.505000", "120536.507500", "120537.512500", "120538.515000", "120539.520000", "120540.525000", "120541.527500", "120542.532500", "120543.535000", "120544.540000", "120545.545000", "120546.547500", "120547.552500", "120548.555000", "120549.560000", "120550.565000", "120551.567500", "120552.572500", "120553.575000", "120554.580000", "120555.585000", "120556.587500", "120557.592500", "120558.595000", "120559.600000", "120600.605000", "120601.607500", "120602.612500", "120603.617500", "120604.620000", "120605.625000", "120606.627500", "120607.632500", "120608.637500", "120609.640000", "120610.645000", "120611.647500", "120612.652500", "120613.657500", "120614.660000", "120615.665000", "120616.667500", "120617.672500", "120618.677500", "120619.680000", "120620.685000", "120621.687500", "120622.692500", "120623.697500", "120624.700000", "120625.705000", "120626.707500", "120627.712500", "120628.717500", "120629.720000", "120630.725000", "120631.727500", "120632.732500", "120633.737500", "120634.740000", "120635.745000", "120636.750000", "120637.752500", "120638.757500", "120639.760000", "120640.765000", "120641.770000", "120642.772500", "120643.777500", "120644.780000", "120645.785000", "120646.790000", "120647.792500", "120648.797500", "120649.800000", "120650.805000", "120651.810000", "120652.812500", "120653.817500", "120654.820000", "120655.825000", "120656.830000", "120657.832500", "120658.837500", "120659.840000", "120700.845000", "120701.850000", "120702.852500", "120703.857500", "120704.860000", "120705.865000", "120706.870000", "120707.872500", "120708.877500", "120709.882500", "120710.885000", "120711.890000", "120712.892500", "120713.897500", "120714.902500", "120715.905000", "120716.910000", "120717.912500", "120718.917500", "120719.922500", "120720.925000", "120721.930000", "120722.932500", "120723.937500", "120724.942500", "120725.945000", "120726.950000", "120727.952500", "120728.957500", "120729.962500", "120730.965000", "120731.970000", "120732.972500", "120733.977500", "120734.982500", "120735.985000", "120736.990000", "120737.995000", "120738.997500", "120740.002500", "120741.005000", "120742.010000", "120743.015000", "120744.017500", "120745.022500"],
      "ContentTime": ["120254.531000", "120254.531000", "120254.546000", "120254.546000", "120254.546000", "120254.546000", "120254.546000", "120254.546000", "120254.546000", "120254.562000", "120254.562000", "120254.562000", "120254.562000", "120254.562000", "120254.562000", "120254.562000", "120254.578000", "120254.578000", "120254.578000", "120254.578000", "120254.578000", "120254.593000", "120254.593000", "120254.593000", "120254.593000", "120254.593000", "120254.593000", "120254.593000", "120254.609000", "120254.609000", "120254.609000", "120254.609000", "120254.609000", "120254.625000", "120254.625000", "120254.625000", "120254.625000", "120254.625000", "120254.625000", "120314.500000", "120314.500000", "120314.500000", "120314.500000", "120314.515000", "120314.515000", "120314.515000", "120314.515000", "120314.515000", "120314.515000", "120314.515000", "120314.531000", "120314.531000", "120314.531000", "120314.531000", "120314.531000", "120314.531000", "120314.531000", "120314.546000", "120314.546000", "120354.500000", "120354.500000", "120354.500000", "120354.500000", "120354.515000", "120354.515000", "120354.515000", "120354.515000", "120354.515000", "120354.515000", "120354.531000", "120354.531000", "120354.531000", "120354.531000", "120354.531000", "120354.531000", "120354.531000", "120354.531000", "120354.546000", "120354.546000", "120354.546000", "120354.562000", "120354.562000", "120354.562000", "120354.562000", "120354.562000", "120354.562000", "120354.578000", "120354.578000", "120354.578000", "120354.578000", "120354.578000", "120354.578000", "120354.578000", "120354.593000", "120354.593000", "120354.593000", "120354.593000", "120354.593000", "120414.500000", "120414.500000", "120414.500000", "120414.500000", "120414.515000", "120414.515000", "120414.515000", "120414.515000", "120414.515000", "120414.515000", "120414.531000", "120414.531000", "120414.531000", "120414.531000", "120414.546000", "120414.546000", "120414.546000", "120414.546000", "120414.562000", "120414.562000", "120434.500000", "120434.500000", "120434.500000", "120434.515000", "120434.515000", "120434.515000", "120434.515000", "120434.515000", "120434.515000", "120434.515000", "120434.531000", "120434.531000", "120434.531000", "120434.531000", "120434.531000", "120434.531000", "120434.531000", "120434.531000", "120434.546000", "120434.546000", "120434.546000", "120454.500000", "120454.500000", "120454.500000", "120454.500000", "120454.515000", "120454.515000", "120454.515000", "120454.515000", "120454.515000", "120454.515000", "120454.515000", "120454.531000", "120454.531000", "120454.531000", "120454.531000", "120454.531000", "120454.531000", "120454.531000", "120454.546000", "120454.546000", "120534.500000", "120534.500000", "120534.500000", "120534.500000", "120534.515000", "120534.515000", "120534.515000", "120534.515000", "120534.515000", "120534.515000", "120534.515000", "120534.531000", "120534.531000", "120534.531000", "120534.531000", "120534.546000", "120534.546000", "120534.546000", "120534.546000", "120534.562000", "120534.562000", "120534.562000", "120534.562000", "120534.578000", "120534.578000", "120534.578000", "120534.578000", "120534.593000", "120534.593000", "120534.593000", "120534.593000", "120534.593000", "120534.593000", "120534.609000", "120534.609000", "120534.609000", "120534.609000", "120534.609000", "120534.609000", "120534.609000", "120554.500000", "120554.500000", "120554.500000", "120554.500000", "120554.515000", "120554.515000", "120554.515000", "120554.515000", "120554.515000", "120554.515000", "120554.531000", "120554.531000", "120554.531000", "120554.531000", "120554.531000", "120554.531000", "120554.531000", "120554.546000", "120554.546000", "120554.546000", "120614.500000", "120614.500000", "120614.500000", "120614.500000", "120614.515000", "120614.515000", "120614.515000", "120614.515000", "120614.515000", "120614.515000", "120614.531000", "120614.531000", "120614.531000", "120614.531000", "120614.531000", "120614.531000", "120614.546000", "120614.546000", "120614.546000", "120614.546000", "120634.500000", "120634.500000", "120634.500000", "120634.515000", "120634.515000", "120634.515000", "120634.515000", "120634.515000", "120634.515000", "120634.515000", "120634.515000", "120634.531000", "120634.531000", "120634.531000", "120634.531000", "120634.531000", "120634.531000", "120634.531000", "120634.546000", "120634.546000", "120654.500000", "120654.500000", "120654.500000", "120654.500000", "120654.515000", "120654.515000", "120654.515000", "120654.515000", "120654.515000", "120654.515000", "120654.515000", "120654.515000", "120654.531000", "120654.531000", "120654.531000", "120654.531000", "120654.531000", "120654.531000", "120654.531000", "120654.546000", "120714.500000", "120714.500000", "120714.500000", "120714.500000", "120714.515000", "120714.515000", "120714.515000", "120714.515000", "120714.515000", "120714.515000", "120714.515000", "120714.531000", "120714.531000", "120714.531000", "120714.531000", "120714.531000", "120714.531000", "120714.531000", "120714.546000", "120714.546000", "120734.500000", "120734.500000", "120734.500000", "120734.500000", "120734.515000", "120734.515000", "120734.515000", "120734.515000", "120734.515000", "120734.515000", "120734.515000", "120734.531000", "120734.531000", "120734.531000", "120734.531000", "120734.531000", "120734.531000", "120734.531000", "120734.531000", "120734.546000", "120750.500000", "120750.515000", "120750.515000", "120750.515000", "120750.515000", "120750.515000", "120750.515000", "120750.515000", "120750.531000", "120750.531000", "120750.531000"],
      "InstanceCreationTime": ["120254.531000", "120254.531000", "120254.546000", "120254.546000", "120254.546000", "120254.546000", "120254.546000", "120254.546000", "120254.546000", "120254.562000", "120254.562000", "120254.562000", "120254.562000", "120254.562000", "120254.562000", "120254.562000", "120254.578000", "120254.578000", "120254.578000", "120254.578000", "120254.578000", "120254.593000", "120254.593000", "120254.593000", "120254.593000", "120254.593000", "120254.593000", "120254.593000", "120254.609000", "120254.609000", "120254.609000", "120254.609000", "120254.609000", "120254.625000", "120254.625000", "120254.625000", "120254.625000", "120254.625000", "120254.625000", "120314.500000", "120314.500000", "120314.500000", "120314.500000", "120314.515000", "120314.515000", "120314.515000", "120314.515000", "120314.515000", "120314.515000", "120314.515000", "120314.531000", "120314.531000", "120314.531000", "120314.531000", "120314.531000", "120314.531000", "120314.531000", "120314.546000", "120314.546000", "120354.500000", "120354.500000", "120354.500000", "120354.500000", "120354.515000", "120354.515000", "120354.515000", "120354.515000", "120354.515000", "120354.515000", "120354.531000", "120354.531000", "120354.531000", "120354.531000", "120354.531000", "120354.531000", "120354.531000", "120354.531000", "120354.546000", "120354.546000", "120354.546000", "120354.562000", "120354.562000", "120354.562000", "120354.562000", "120354.562000", "120354.562000", "120354.578000", "120354.578000", "120354.578000", "120354.578000", "120354.578000", "120354.578000", "120354.578000", "120354.593000", "120354.593000", "120354.593000", "120354.593000", "120354.593000", "120414.500000", "120414.500000", "120414.500000", "120414.500000", "120414.515000", "120414.515000", "120414.515000", "120414.515000", "120414.515000", "120414.515000", "120414.531000", "120414.531000", "120414.531000", "120414.531000", "120414.546000", "120414.546000", "120414.546000", "120414.546000", "120414.562000", "120414.562000", "120434.500000", "120434.500000", "120434.500000", "120434.515000", "120434.515000", "120434.515000", "120434.515000", "120434.515000", "120434.515000", "120434.515000", "120434.531000", "120434.531000", "120434.531000", "120434.531000", "120434.531000", "120434.531000", "120434.531000", "120434.531000", "120434.546000", "120434.546000", "120434.546000", "120454.500000", "120454.500000", "120454.500000", "120454.500000", "120454.515000", "120454.515000", "120454.515000", "120454.515000", "120454.515000", "120454.515000", "120454.515000", "120454.531000", "120454.531000", "120454.531000", "120454.531000", "120454.531000", "120454.531000", "120454.531000", "120454.546000", "120454.546000", "120534.500000", "120534.500000", "120534.500000", "120534.500000", "120534.515000", "120534.515000", "120534.515000", "120534.515000", "120534.515000", "120534.515000", "120534.515000", "120534.531000", "120534.531000", "120534.531000", "120534.531000", "120534.546000", "120534.546000", "120534.546000", "120534.546000", "120534.562000", "120534.562000", "120534.562000", "120534.562000", "120534.578000", "120534.578000", "120534.578000", "120534.578000", "120534.593000", "120534.593000", "120534.593000", "120534.593000", "120534.593000", "120534.593000", "120534.609000", "120534.609000", "120534.609000", "120534.609000", "120534.609000", "120534.609000", "120534.609000", "120554.500000", "120554.500000", "120554.500000", "120554.500000", "120554.515000", "120554.515000", "120554.515000", "120554.515000", "120554.515000", "120554.515000", "120554.531000", "120554.531000", "120554.531000", "120554.531000", "120554.531000", "120554.531000", "120554.531000", "120554.546000", "120554.546000", "120554.546000", "120614.500000", "120614.500000", "120614.500000", "120614.500000", "120614.515000", "120614.515000", "120614.515000", "120614.515000", "120614.515000", "120614.515000", "120614.531000", "120614.531000", "120614.531000", "120614.531000", "120614.531000", "120614.531000", "120614.546000", "120614.546000", "120614.546000", "120614.546000", "120634.500000", "120634.500000", "120634.500000", "120634.515000", "120634.515000", "120634.515000", "120634.515000", "120634.515000", "120634.515000", "120634.515000", "120634.515000", "120634.531000", "120634.531000", "120634.531000", "120634.531000", "120634.531000", "120634.531000", "120634.531000", "120634.546000", "120634.546000", "120654.500000", "120654.500000", "120654.500000", "120654.500000", "120654.515000", "120654.515000", "120654.515000", "120654.515000", "120654.515000", "120654.515000", "120654.515000", "120654.515000", "120654.531000", "120654.531000", "120654.531000", "120654.531000", "120654.531000", "120654.531000", "120654.531000", "120654.546000", "120714.500000", "120714.500000", "120714.500000", "120714.500000", "120714.515000", "120714.515000", "120714.515000", "120714.515000", "120714.515000", "120714.515000", "120714.515000", "120714.531000", "120714.531000", "120714.531000", "120714.531000", "120714.531000", "120714.531000", "120714.531000", "120714.546000", "120714.546000", "120734.500000", "120734.500000", "120734.500000", "120734.500000", "120734.515000", "120734.515000", "120734.515000", "120734.515000", "120734.515000", "120734.515000", "120734.515000", "120734.531000", "120734.531000", "120734.531000", "120734.531000", "120734.531000", "120734.531000", "120734.531000", "120734.531000", "120734.546000", "120750.500000", "120750.515000", "120750.515000", "120750.515000", "120750.515000", "120750.515000", "120750.515000", "120750.515000", "120750.531000", "120750.531000", "120750.531000"],
      "InstanceNumber": [1, 2, 3, 4, 5, 6, 7, 8, 9, 10, 11, 12, 13, 14, 15, 16, 17, 18, 19, 20, 21, 22, 23, 24, 25, 26, 27, 28, 29, 30, 31, 32, 33, 34, 35, 36, 37, 38, 39, 40, 41, 42, 43, 44, 45, 46, 47, 48, 49, 50, 51, 52, 53, 54, 55, 56, 57, 58, 59, 60, 61, 62, 63, 64, 65, 66, 67, 68, 69, 70, 71, 72, 73, 74, 75, 76, 77, 78, 79, 80, 81, 82, 83, 84, 85, 86, 87, 88, 89, 90, 91, 92, 93, 94, 95, 96, 97, 98, 99, 100, 101, 102, 103, 104, 105, 106, 107, 108, 109, 110, 111, 112, 113, 114, 115, 116, 117, 118, 119, 120, 121, 122, 123, 124, 125, 126, 127, 128, 129, 130, 131, 132, 133, 134, 135, 136, 137, 138, 139, 140, 141, 142, 143, 144, 145, 146, 147, 148, 149, 150, 151, 152, 153, 154, 155, 156, 157, 158, 159, 160, 161, 162, 163, 164, 165, 166, 167, 168, 169, 170, 171, 172, 173, 174, 175, 176, 177, 178, 179, 180, 181, 182, 183, 184, 185, 186, 187, 188, 189, 190, 191, 192, 193, 194, 195, 196, 197, 198, 199, 200, 201, 202, 203, 204, 205, 206, 207, 208, 209, 210, 211, 212, 213, 214, 215, 216, 217, 218, 219, 220, 221, 222, 223, 224, 225, 226, 227, 228, 229, 230, 231, 232, 233, 234, 235, 236, 237, 238, 239, 240, 241, 242, 243, 244, 245, 246, 247, 248, 249, 250, 251, 252, 253, 254, 255, 256, 257, 258, 259, 260, 261, 262, 263, 264, 265, 266, 267, 268, 269, 270, 271, 272, 273, 274, 275, 276, 277, 278, 279, 280, 281, 282, 283, 284, 285, 286, 287, 288, 289, 290, 291, 292, 293, 294, 295, 296, 297, 298, 299, 300, 301, 302, 303, 304, 305, 306, 307, 308, 309, 310, 311, 312, 313, 314, 315, 316, 317, 318, 319, 320, 321, 322, 323, 324, 325, 326, 327, 328, 329, 330],
      "LargestImagePixelValue": [2283, 2309, 2274, 2290, 2286, 2281, 2260, 2266, 2290, 2259, 2252, 2284, 2278, 2299, 2287, 2289, 2274, 2272, 2290, 2271, 2286, 2266, 2267, 2299, 2281, 2231, 2255, 2284, 2273, 2283, 2246, 2282, 2280, 2287, 2265, 2259, 2284, 2273, 2257, 2296, 2277, 2269, 2264, 2295, 2256, 2271, 2298, 2305, 2285, 2276, 2264, 2292, 2266, 2265, 2283, 2261, 2243, 2237, 2243, 2262, 2296, 2281, 2298, 2271, 2261, 2284, 2277, 2298, 2278, 2310, 2263, 2302, 2317, 2287, 2295, 2284, 2289, 2278, 2291, 2275, 2272, 2273, 2270, 2301, 2290, 2289, 2297, 2292, 2301, 2288, 2275, 2304, 2286, 2280, 2278, 2260, 2284, 2271, 2307, 2258, 2258, 2271, 2290, 2304, 2260, 2271, 2284, 2278, 2279, 2267, 2258, 2281, 2278, 2314, 2283, 2241, 2302, 2303, 2275, 2265, 2273, 2282, 2259, 2277, 2280, 2260, 2254, 2287, 2310, 2253, 2276, 2269, 2282, 2303, 2271, 2256, 2277, 2305, 2279, 2240, 2265, 2281, 2254, 2273, 2261, 2261, 2295, 2262, 2262, 2266, 2288, 2242, 2290, 2283, 2292, 2280, 2262, 2297, 2297, 2285, 2275, 2285, 2274, 2280, 2264, 2244, 2273, 2277, 2258, 2248, 2236, 2274, 2260, 2280, 2271, 2271, 2260, 2287, 2285, 2257, 2263, 2259, 2274, 2304, 2270, 2257, 2306, 2257, 2283, 2281, 2271, 2245, 2272, 2256, 2264, 2272, 2294, 2266, 2271, 2278, 2257, 2296, 2285, 2292, 2260, 2287, 2269, 2254, 2268, 2267, 2268, 2292, 2289, 2259, 2305, 2271, 2281, 2281, 2299, 2272, 2266, 2289, 2278, 2265, 2263, 2256, 2262, 2267, 2287, 2298, 2268, 2253, 2284, 2277, 2302, 2269, 2290, 2288, 2305, 2288, 2268, 2280, 2305, 2287, 2278, 2304, 2294, 2258, 2296, 2293, 2254, 2305, 2303, 2296, 2307, 2274, 2259, 2299, 2275, 2282, 2279, 2276, 2273, 2269, 2260, 2260, 2275, 2262, 2270, 2264, 2274, 2261, 2288, 2262, 2262, 2261, 2278, 2297, 2276, 2263, 2265, 2248, 2272, 2265, 2254, 2259, 2235, 2307, 2284, 2259, 2272, 2256, 2283, 2283, 2269, 2256, 2260, 2268, 2284, 2262, 2269, 2240, 2279, 2278, 2284, 2252, 2290, 2276, 2255, 2297, 2256, 2252, 2283, 2262, 2278, 2265, 2267, 2265, 2267, 2297, 2244, 2276, 2284, 2289, 2257, 2253, 2280, 2298, 2267, 2248],
      "WindowCenter": [436.0, 436.0, 435.0, 435.0, 435.0, 435.0, 435.0, 435.0, 435.0, 434.0, 434.0, 435.0, 436.0, 437.0, 437.0, 436.0, 436.0, 436.0, 435.0, 435.0, 435.0, 436.0, 437.0, 437.0, 436.0, 436.0, 435.0, 435.0, 435.0, 435.0, 435.0, 435.0, 435.0, 435.0, 435.0, 435.0, 435.0, 435.0, 435.0, 435.0, 436.0, 436.0, 436.0, 437.0, 437.0, 437.0, 437.0, 437.0, 437.0, 437.0, 437.0, 437.0, 436.0, 436.0, 437.0, 437.0, 437.0, 437.0, 437.0, 437.0, 437.0, 436.0, 435.0, 435.0, 435.0, 434.0, 435.0, 435.0, 435.0, 435.0, 435.0, 436.0, 435.0, 435.0, 436.0, 436.0, 437.0, 437.0, 437.0, 437.0, 436.0, 437.0, 436.0, 436.0, 436.0, 436.0, 436.0, 437.0, 437.0, 437.0, 437.0, 437.0, 437.0, 437.0, 436.0, 436.0, 436.0, 437.0, 437.0, 437.0, 437.0, 437.0, 437.0, 436.0, 436.0, 437.0, 437.0, 437.0, 437.0, 437.0, 436.0, 436.0, 436.0, 437.0, 437.0, 437.0, 437.0, 438.0, 438.0, 438.0, 439.0, 439.0, 439.0, 439.0, 439.0, 438.0, 437.0, 436.0, 436.0, 436.0, 436.0, 436.0, 436.0, 436.0, 436.0, 436.0, 436.0, 436.0, 436.0, 436.0, 436.0, 437.0, 436.0, 436.0, 436.0, 436.0, 437.0, 437.0, 436.0, 436.0, 436.0, 436.0, 437.0, 437.0, 437.0, 438.0, 438.0, 438.0, 437.0, 436.0, 436.0, 436.0, 436.0, 436.0, 436.0, 436.0, 436.0, 436.0, 436.0, 436.0, 436.0, 437.0, 437.0, 438.0, 437.0, 437.0, 437.0, 437.0, 436.0, 436.0, 436.0, 436.0, 437.0, 438.0, 439.0, 439.0, 438.0, 437.0, 436.0, 437.0, 437.0, 437.0, 438.0, 438.0, 438.0, 438.0, 437.0, 436.0, 436.0, 436.0, 436.0, 436.0, 436.0, 437.0, 436.0, 438.0, 438.0, 437.0, 438.0, 437.0, 436.0, 436.0, 436.0, 436.0, 436.0, 437.0, 438.0, 439.0, 439.0, 439.0, 438.0, 438.0, 438.0, 437.0, 437.0, 437.0, 437.0, 438.0, 439.0, 440.0, 440.0, 439.0, 438.0, 437.0, 437.0, 436.0, 436.0, 437.0, 437.0, 437.0, 436.0, 436.0, 436.0, 436.0, 435.0, 436.0, 436.0, 436.0, 437.0, 437.0, 437.0, 437.0, 437.0, 437.0, 437.0, 438.0, 436.0, 436.0, 436.0, 436.0, 436.0, 437.0, 437.0, 438.0, 438.0, 437.0, 438.0, 438.0, 438.0, 439.0, 439.0, 438.0, 437.0, 436.0, 436.0, 435.0, 436.0, 436.0, 436.0, 436.0, 436.0, 436.0, 436.0, 436.0, 435.0, 436.0, 435.0, 435.0, 435.0, 435.0, 436.0, 436.0, 437.0, 437.0, 436.0, 437.0, 437.0, 437.0, 438.0, 438.0, 438.0, 437.0, 436.0, 436.0, 437.0, 436.0, 436.0, 436.0, 436.0, 436.0, 436.0, 436.0, 437.0, 438.0, 438.0, 437.0, 437.0, 438.0, 438.0, 439.0, 438.0, 436.0, 436.0, 436.0, 436.0, 436.0, 436.0, 436.0, 436.0, 436.0],
