{
  "AcquisitionMatrixPE": 104,
  "AcquisitionNumber": 1,
  "AcquisitionTime": "10:06:36.520000",
  "BandwidthPerPixelPhaseEncode": 43.054,
  "BaseResolution": 104,
  "CoilString": "C:E1_2",
  "ConversionSoftware": "dcm2niix",
  "ConversionSoftwareVersion": "v1.0.20191031",
  "DerivedVendorReportedEchoSpacing": 0.000669999,
  "DeviceSerialNumber": "18932",
  "DwellTime": 2.8e-06,
  "EchoTime": 0.02,
  "EffectiveEchoSpacing": 0.000223333,
  "FlipAngle": 30,
  "ImageComments": "Unaliased_MB2_PE2",
  "ImageOrientationPatientDICOM": [1, 2e-16, 0, -2e-16, 0.965926, -0.258819],
  "ImageType": [
    "ORIGINAL",
    "PRIMARY",
    "M",
    "MB",
    "ND",
    "MOSAIC"
],
  "ImagingFrequency": 297.23,
  "InPlanePhaseEncodingDirectionDICOM": "COL",
  "InstitutionAddress": "Richmond_Street_North_1151_London_409EF2_Ontario_CA_N6A_5B7",
  "InstitutionName": "Robarts_Reserch_Institute",
  "InstitutionalDepartmentName": "Department",
  "MRAcquisitionType": "2D",
  "MagneticFieldStrength": 6.98,
  "Manufacturer": "Siemens",
  "ManufacturersModelName": "Investigational_Device_7T",
  "Modality": "MR",
  "MultibandAccelerationFactor": 2,
  "ParallelReductionFactorInPlane": 3,
  "PartialFourier": 0.875,
  "PatientPosition": "HFS",
  "PercentPhaseFOV": 100,
  "PhaseEncodingDirection": "j-",
  "PhaseEncodingSteps": 91,
  "PhaseResolution": 1,
  "PixelBandwidth": 1717,
  "ProcedureStepDescription": "Diedrichsen_SeqRep4",
  "ProtocolName": "mbep2d_bold_mb2_p3_AP_2iso",
  "PulseSequenceDetails": "%CustomerSeq%_cmrr_mbep2d_bold",
  "ReceiveCoilName": "CFMM_8Tx32Rx",
  "ReconMatrixPE": 104,
  "RefLinesPE": 36,
  "RepetitionTime": 1,
  "ScanOptions": "PFP_FS",
  "ScanningSequence": "EP",
  "SequenceName": "epfid2d1_104",
  "SequenceVariant": "SK_SS",
  "SeriesDescription": "mbep2d_bold_mb2_p3_AP_2iso",
  "SeriesNumber": 29,
  "ShimSetting": [-5, 1998, 309, 43, -98, -114, -302, -166],
  "SliceThickness": 2,
  "SliceTiming": [0, 0.23, 0.4575, 0.685, 0.9125, 0.1375, 0.365, 0.595, 0.8225, 0.0475, 0.275, 0.5025, 0.73, 0.96, 0.1825, 0.4125, 0.64, 0.8675, 0.0925, 0.32, 0.5475, 0.7775, 0, 0.23, 0.4575, 0.685, 0.9125, 0.1375, 0.365, 0.595, 0.8225, 0.0475, 0.275, 0.5025, 0.73, 0.96, 0.1825, 0.4125, 0.64, 0.8675, 0.0925, 0.32, 0.5475, 0.7775],
  "SoftwareVersions": "syngo_MR_B17",
  "SpacingBetweenSlices": 2,
  "StationName": "MASTER",
  "TaskName": "dsp",
  "TotalReadoutTime": 0.0230033,
  "TxRefAmp": 120,
  "dcmmeta_affine": [
    [-2.0, -4.000000067449534e-16, 1.035276159788667e-16, 103.27360534667969],
    [-4.000000067449534e-16, 1.9318516254425049, -0.517638087272644, -100.47244262695312],
    [0.0, 0.517638087272644, 1.9318516254425049, -65.80461883544922],
    [0.0, 0.0, 0.0, 1.0]
],
  "dcmmeta_reorient_transform": [
    [0.0, -1.0, 0.0, 103.0],
    [1.0, 0.0, 0.0, 0.0],
    [0.0, 0.0, 1.0, 0.0],
    [0.0, 0.0, 0.0, 1.0]
],
  "dcmmeta_shape": [104, 104, 44, 330],
  "dcmmeta_slice_dim": 2,
  "dcmmeta_version": 0.6,
  "global": {
    "const": {
      "AcquisitionMatrix": [104, 0, 0, 104],
      "AngioFlag": "N",
      "BitsAllocated": 16,
      "BitsStored": 12,
      "Columns": 728,
      "EchoNumbers": 1,
      "EchoTime": 20.0,
      "EchoTrainLength": 1,
      "FlipAngle": 30.0,
      "HighBit": 11,
      "ImageOrientationPatient": [1.0, 2e-16, 0.0, -2e-16, 0.9659258278573, -0.2588190392498],
      "ImagePositionPatient": [-727.27360773087, -701.24599295073, 149.01518168592],
      "ImageType": [
        "ORIGINAL",
        "PRIMARY",
        "M",
        "MB",
        "ND",
        "MOSAIC"
],
      "ImagedNucleus": "1H",
      "ImagingFrequency": 297.229864,
      "InPlanePhaseEncodingDirection": "COL",
      "MRAcquisitionType": "2D",
      "MagneticFieldStrength": 6.98,
      "Manufacturer": "SIEMENS",
      "ManufacturerModelName": "Investigational_Device_7T",
      "Modality": "MR",
      "NumberOfAverages": 1.0,
      "NumberOfPhaseEncodingSteps": 91,
      "PercentPhaseFieldOfView": 100.0,
      "PercentSampling": 100.0,
      "PerformedProcedureStepStartTime": "091301.203000",
      "PhotometricInterpretation": "MONOCHROME2",
      "PixelBandwidth": 1717.0,
      "PixelRepresentation": 0,
      "PixelSpacing": [2.0, 2.0],
      "ProtocolName": "mbep2d_bold_mb2_p3_AP 2iso",
      "RepetitionTime": 1000.0,
      "Rows": 728,
      "SAR": 0.0,
      "SamplesPerPixel": 1,
      "ScanOptions": [
        "PFP",
        "FS"
],
      "ScanningSequence": "EP",
      "SequenceName": "epfid2d1_104",
      "SequenceVariant": [
        "SK",
        "SS"
],
      "SeriesDescription": "mbep2d_bold_mb2_p3_AP 2iso",
      "SeriesNumber": 29,
      "SeriesTime": "100706.203000",
      "SliceLocation": -37.558201440006,
      "SliceThickness": 2.0,
      "SmallestImagePixelValue": 0,
      "SoftwareVersions": "syngo MR B17",
      "SpacingBetweenSlices": 2.0000000219488,
      "SpecificCharacterSet": "ISO_IR 100",
      "StudyID": "1",
      "StudyTime": "091301.140000",
      "TransmitCoilName": "CFMM_8Tx32Rx",
      "VariableFlipAngleFlag": "N",
      "WindowCenterWidthExplanation": "Algo1",
      "dBdt": 0.0},
    "slices": {}
  },
  "time": {
    "samples": {
      "AcquisitionNumber": [1, 2, 3, 4, 5, 6, 7, 8, 9, 10, 11, 12, 13, 14, 15, 16, 17, 18, 19, 20, 21, 22, 23, 24, 25, 26, 27, 28, 29, 30, 31, 32, 33, 34, 35, 36, 37, 38, 39, 40, 41, 42, 43, 44, 45, 46, 47, 48, 49, 50, 51, 52, 53, 54, 55, 56, 57, 58, 59, 60, 61, 62, 63, 64, 65, 66, 67, 68, 69, 70, 71, 72, 73, 74, 75, 76, 77, 78, 79, 80, 81, 82, 83, 84, 85, 86, 87, 88, 89, 90, 91, 92, 93, 94, 95, 96, 97, 98, 99, 100, 101, 102, 103, 104, 105, 106, 107, 108, 109, 110, 111, 112, 113, 114, 115, 116, 117, 118, 119, 120, 121, 122, 123, 124, 125, 126, 127, 128, 129, 130, 131, 132, 133, 134, 135, 136, 137, 138, 139, 140, 141, 142, 143, 144, 145, 146, 147, 148, 149, 150, 151, 152, 153, 154, 155, 156, 157, 158, 159, 160, 161, 162, 163, 164, 165, 166, 167, 168, 169, 170, 171, 172, 173, 174, 175, 176, 177, 178, 179, 180, 181, 182, 183, 184, 185, 186, 187, 188, 189, 190, 191, 192, 193, 194, 195, 196, 197, 198, 199, 200, 201, 202, 203, 204, 205, 206, 207, 208, 209, 210, 211, 212, 213, 214, 215, 216, 217, 218, 219, 220, 221, 222, 223, 224, 225, 226, 227, 228, 229, 230, 231, 232, 233, 234, 235, 236, 237, 238, 239, 240, 241, 242, 243, 244, 245, 246, 247, 248, 249, 250, 251, 252, 253, 254, 255, 256, 257, 258, 259, 260, 261, 262, 263, 264, 265, 266, 267, 268, 269, 270, 271, 272, 273, 274, 275, 276, 277, 278, 279, 280, 281, 282, 283, 284, 285, 286, 287, 288, 289, 290, 291, 292, 293, 294, 295, 296, 297, 298, 299, 300, 301, 302, 303, 304, 305, 306, 307, 308, 309, 310, 311, 312, 313, 314, 315, 316, 317, 318, 319, 320, 321, 322, 323, 324, 325, 326, 327, 328, 329, 330],
      "AcquisitionTime": ["100636.520000", "100637.525000", "100638.530000", "100639.532500", "100640.537500", "100641.540000", "100642.545000", "100643.550000", "100644.552500", "100645.557500", "100646.560000", "100647.565000", "100648.570000", "100649.572500", "100650.577500", "100651.582500", "100652.585000", "100653.590000", "100654.592500", "100655.597500", "100656.602500", "100657.605000", "100658.610000", "100659.612500", "100700.617500", "100701.622500", "100702.625000", "100703.630000", "100704.632500", "100705.637500", "100706.642500", "100707.645000", "100708.650000", "100709.652500", "100710.657500", "100711.662500", "100712.665000", "100713.670000", "100714.672500", "100715.677500", "100716.682500", "100717.685000", "100718.690000", "100719.692500", "100720.697500", "100721.702500", "100722.705000", "100723.710000", "100724.715000", "100725.717500", "100726.722500", "100727.725000", "100728.730000", "100729.735000", "100730.737500", "100731.742500", "100732.745000", "100733.750000", "100734.755000", "100735.757500", "100736.762500", "100737.765000", "100738.770000", "100739.775000", "100740.777500", "100741.782500", "100742.785000", "100743.790000", "100744.795000", "100745.797500", "100746.802500", "100747.805000", "100748.810000", "100749.815000", "100750.817500", "100751.822500", "100752.827500", "100753.830000", "100754.835000", "100755.837500", "100756.842500", "100757.847500", "100758.850000", "100759.855000", "100800.857500", "100801.862500", "100802.867500", "100803.870000", "100804.875000", "100805.877500", "100806.882500", "100807.887500", "100808.890000", "100809.895000", "100810.897500", "100811.902500", "100812.907500", "100813.910000", "100814.915000", "100815.917500", "100816.922500", "100817.927500", "100818.930000", "100819.935000", "100820.937500", "100821.942500", "100822.947500", "100823.950000", "100824.955000", "100825.960000", "100826.962500", "100827.967500", "100828.970000", "100829.975000", "100830.980000", "100831.982500", "100832.987500", "100833.990000", "100834.995000", "100836.000000", "100837.002500", "100838.007500", "100839.010000", "100840.015000", "100841.020000", "100842.022500", "100843.027500", "100844.030000", "100845.035000", "100846.040000", "100847.042500", "100848.047500", "100849.050000", "100850.055000", "100851.060000", "100852.062500", "100853.067500", "100854.070000", "100855.075000", "100856.080000", "100857.082500", "100858.087500", "100859.092500", "100900.095000", "100901.100000", "100902.102500", "100903.107500", "100904.112500", "100905.115000", "100906.120000", "100907.122500", "100908.127500", "100909.132500", "100910.135000", "100911.140000", "100912.142500", "100913.147500", "100914.152500", "100915.155000", "100916.160000", "100917.162500", "100918.167500", "100919.172500", "100920.175000", "100921.180000", "100922.182500", "100923.187500", "100924.192500", "100925.195000", "100926.200000", "100927.205000", "100928.207500", "100929.212500", "100930.215000", "100931.220000", "100932.225000", "100933.227500", "100934.232500", "100935.235000", "100936.240000", "100937.245000", "100938.247500", "100939.252500", "100940.255000", "100941.260000", "100942.265000", "100943.267500", "100944.272500", "100945.275000", "100946.280000", "100947.285000", "100948.287500", "100949.292500", "100950.295000", "100951.300000", "100952.305000", "100953.307500", "100954.312500", "100955.315000", "100956.320000", "100957.325000", "100958.327500", "100959.332500", "101000.337500", "101001.340000", "101002.345000", "101003.347500", "101004.352500", "101005.357500", "101006.360000", "101007.365000", "101008.367500", "101009.372500", "101010.377500", "101011.380000", "101012.385000", "101013.387500", "101014.392500", "101015.397500", "101016.400000", "101017.405000", "101018.407500", "101019.412500", "101020.417500", "101021.420000", "101022.425000", "101023.427500", "101024.432500", "101025.437500", "101026.440000", "101027.445000", "101028.450000", "101029.452500", "101030.457500", "101031.460000", "101032.465000", "101033.470000", "101034.472500", "101035.477500", "101036.480000", "101037.485000", "101038.490000", "101039.492500", "101040.497500", "101041.500000", "101042.505000", "101043.510000", "101044.512500", "101045.517500", "101046.520000", "101047.525000", "101048.530000", "101049.532500", "101050.537500", "101051.540000", "101052.545000", "101053.550000", "101054.552500", "101055.557500", "101056.560000", "101057.565000", "101058.570000", "101059.572500", "101100.577500", "101101.582500", "101102.585000", "101103.590000", "101104.592500", "101105.597500", "101106.602500", "101107.605000", "101108.610000", "101109.612500", "101110.617500", "101111.622500", "101112.625000", "101113.630000", "101114.632500", "101115.637500", "101116.642500", "101117.645000", "101118.650000", "101119.652500", "101120.657500", "101121.662500", "101122.665000", "101123.670000", "101124.672500", "101125.677500", "101126.682500", "101127.685000", "101128.690000", "101129.692500", "101130.697500", "101131.702500", "101132.705000", "101133.710000", "101134.715000", "101135.717500", "101136.722500", "101137.725000", "101138.730000", "101139.735000", "101140.737500", "101141.742500", "101142.745000", "101143.750000", "101144.755000", "101145.757500", "101146.762500", "101147.765000", "101148.770000", "101149.775000", "101150.777500", "101151.782500", "101152.785000", "101153.790000", "101154.795000", "101155.797500", "101156.802500", "101157.805000", "101158.810000", "101159.815000", "101200.817500", "101201.822500", "101202.827500", "101203.830000", "101204.835000", "101205.837500", "101206.842500"],
      "ContentTime": ["100706.203000", "100706.203000", "100706.203000", "100706.203000", "100706.218000", "100706.218000", "100706.218000", "100706.218000", "100706.218000", "100706.218000", "100706.234000", "100706.234000", "100706.234000", "100706.234000", "100706.234000", "100706.250000", "100706.250000", "100706.250000", "100706.250000", "100706.250000", "100706.250000", "100706.250000", "100706.250000", "100706.265000", "100706.265000", "100706.265000", "100706.265000", "100706.265000", "100726.171000", "100726.171000", "100726.171000", "100726.171000", "100726.171000", "100726.187000", "100726.187000", "100726.187000", "100726.187000", "100726.187000", "100726.187000", "100726.187000", "100726.187000", "100726.203000", "100726.203000", "100726.203000", "100726.203000", "100726.203000", "100726.203000", "100726.203000", "100746.171000", "100746.171000", "100746.171000", "100746.171000", "100746.171000", "100746.187000", "100746.187000", "100746.187000", "100746.187000", "100746.187000", "100746.187000", "100746.187000", "100746.187000", "100746.203000", "100746.203000", "100746.203000", "100746.203000", "100746.203000", "100746.203000", "100746.203000", "100806.171000", "100806.171000", "100806.171000", "100806.171000", "100806.171000", "100806.187000", "100806.187000", "100806.187000", "100806.187000", "100806.187000", "100806.187000", "100806.187000", "100806.187000", "100806.203000", "100806.203000", "100806.203000", "100806.203000", "100806.203000", "100806.203000", "100806.203000", "100826.171000", "100826.171000", "100826.171000", "100826.171000", "100826.171000", "100826.187000", "100826.187000", "100826.187000", "100826.187000", "100826.187000", "100826.187000", "100826.203000", "100826.203000", "100826.203000", "100826.203000", "100826.203000", "100826.203000", "100826.203000", "100826.203000", "100826.218000", "100846.171000", "100846.171000", "100846.171000", "100846.171000", "100846.171000", "100846.187000", "100846.187000", "100846.187000", "100846.187000", "100846.187000", "100846.187000", "100846.187000", "100846.187000", "100846.203000", "100846.203000", "100846.203000", "100846.203000", "100846.203000", "100846.203000", "100846.203000", "100906.171000", "100906.171000", "100906.171000", "100906.171000", "100906.187000", "100906.187000", "100906.187000", "100906.187000", "100906.187000", "100906.187000", "100906.187000", "100906.203000", "100906.203000", "100906.203000", "100906.203000", "100906.203000", "100906.203000", "100906.203000", "100906.218000", "100906.218000", "100926.171000", "100926.171000", "100926.171000", "100926.171000", "100926.187000", "100926.187000", "100926.187000", "100926.187000", "100926.187000", "100926.187000", "100926.187000", "100926.203000", "100926.203000", "100926.203000", "100926.203000", "100926.203000", "100926.203000", "100926.203000", "100926.218000", "100926.218000", "100946.171000", "100946.171000", "100946.171000", "100946.171000", "100946.171000", "100946.187000", "100946.187000", "100946.187000", "100946.187000", "100946.187000", "100946.187000", "100946.187000", "100946.203000", "100946.203000", "100946.203000", "100946.203000", "100946.203000", "100946.203000", "100946.203000", "100946.218000", "101006.171000", "101006.171000", "101006.171000", "101006.171000", "101006.171000", "101006.187000", "101006.187000", "101006.187000", "101006.187000", "101006.187000", "101006.187000", "101006.187000", "101006.187000", "101006.203000", "101006.203000", "101006.203000", "101006.203000", "101006.218000", "101006.218000", "101006.218000", "101026.171000", "101026.171000", "101026.171000", "101026.171000", "101026.171000", "101026.187000", "101026.187000", "101026.187000", "101026.187000", "101026.187000", "101026.187000", "101026.187000", "101026.203000", "101026.203000", "101026.203000", "101026.203000", "101026.203000", "101026.203000", "101026.218000", "101026.218000", "101046.171000", "101046.171000", "101046.171000", "101046.171000", "101046.171000", "101046.187000", "101046.187000", "101046.187000", "101046.187000", "101046.187000", "101046.187000", "101046.203000", "101046.203000", "101046.203000", "101046.203000", "101046.203000", "101046.203000", "101046.203000", "101046.218000", "101046.218000", "101106.171000", "101106.171000", "101106.171000", "101106.171000", "101106.171000", "101106.187000", "101106.187000", "101106.187000", "101106.187000", "101106.187000", "101106.187000", "101106.187000", "101106.203000", "101106.203000", "101106.203000", "101106.203000", "101106.203000", "101106.203000", "101106.203000", "101106.203000", "101126.171000", "101126.171000", "101126.171000", "101126.171000", "101126.187000", "101126.187000", "101126.187000", "101126.187000", "101126.187000", "101126.187000", "101126.187000", "101126.187000", "101126.203000", "101126.203000", "101126.203000", "101126.203000", "101126.203000", "101126.203000", "101126.203000", "101126.218000", "101146.171000", "101146.171000", "101146.171000", "101146.171000", "101146.187000", "101146.187000", "101146.187000", "101146.187000", "101146.187000", "101146.187000", "101146.187000", "101146.187000", "101146.203000", "101146.203000", "101146.203000", "101146.203000", "101146.203000", "101146.203000", "101146.203000", "101146.218000", "101206.171000", "101206.171000", "101206.171000", "101206.187000", "101206.187000", "101206.187000", "101206.187000", "101206.187000", "101206.187000", "101206.187000", "101206.203000", "101206.203000", "101206.203000", "101206.203000", "101206.203000", "101206.203000", "101206.203000", "101206.218000", "101206.218000", "101206.218000", "101212.828000", "101212.843000"],
      "InstanceCreationTime": ["100706.203000", "100706.203000", "100706.203000", "100706.203000", "100706.218000", "100706.218000", "100706.218000", "100706.218000", "100706.218000", "100706.218000", "100706.234000", "100706.234000", "100706.234000", "100706.234000", "100706.234000", "100706.250000", "100706.250000", "100706.250000", "100706.250000", "100706.250000", "100706.250000", "100706.250000", "100706.250000", "100706.265000", "100706.265000", "100706.265000", "100706.265000", "100706.265000", "100726.171000", "100726.171000", "100726.171000", "100726.171000", "100726.171000", "100726.187000", "100726.187000", "100726.187000", "100726.187000", "100726.187000", "100726.187000", "100726.187000", "100726.187000", "100726.203000", "100726.203000", "100726.203000", "100726.203000", "100726.203000", "100726.203000", "100726.203000", "100746.171000", "100746.171000", "100746.171000", "100746.171000", "100746.171000", "100746.187000", "100746.187000", "100746.187000", "100746.187000", "100746.187000", "100746.187000", "100746.187000", "100746.187000", "100746.203000", "100746.203000", "100746.203000", "100746.203000", "100746.203000", "100746.203000", "100746.203000", "100806.171000", "100806.171000", "100806.171000", "100806.171000", "100806.171000", "100806.187000", "100806.187000", "100806.187000", "100806.187000", "100806.187000", "100806.187000", "100806.187000", "100806.187000", "100806.203000", "100806.203000", "100806.203000", "100806.203000", "100806.203000", "100806.203000", "100806.203000", "100826.171000", "100826.171000", "100826.171000", "100826.171000", "100826.171000", "100826.187000", "100826.187000", "100826.187000", "100826.187000", "100826.187000", "100826.187000", "100826.203000", "100826.203000", "100826.203000", "100826.203000", "100826.203000", "100826.203000", "100826.203000", "100826.203000", "100826.218000", "100846.171000", "100846.171000", "100846.171000", "100846.171000", "100846.171000", "100846.187000", "100846.187000", "100846.187000", "100846.187000", "100846.187000", "100846.187000", "100846.187000", "100846.187000", "100846.203000", "100846.203000", "100846.203000", "100846.203000", "100846.203000", "100846.203000", "100846.203000", "100906.171000", "100906.171000", "100906.171000", "100906.171000", "100906.187000", "100906.187000", "100906.187000", "100906.187000", "100906.187000", "100906.187000", "100906.187000", "100906.203000", "100906.203000", "100906.203000", "100906.203000", "100906.203000", "100906.203000", "100906.203000", "100906.218000", "100906.218000", "100926.171000", "100926.171000", "100926.171000", "100926.171000", "100926.187000", "100926.187000", "100926.187000", "100926.187000", "100926.187000", "100926.187000", "100926.187000", "100926.203000", "100926.203000", "100926.203000", "100926.203000", "100926.203000", "100926.203000", "100926.203000", "100926.218000", "100926.218000", "100946.171000", "100946.171000", "100946.171000", "100946.171000", "100946.171000", "100946.187000", "100946.187000", "100946.187000", "100946.187000", "100946.187000", "100946.187000", "100946.187000", "100946.203000", "100946.203000", "100946.203000", "100946.203000", "100946.203000", "100946.203000", "100946.203000", "100946.218000", "101006.171000", "101006.171000", "101006.171000", "101006.171000", "101006.171000", "101006.187000", "101006.187000", "101006.187000", "101006.187000", "101006.187000", "101006.187000", "101006.187000", "101006.187000", "101006.203000", "101006.203000", "101006.203000", "101006.203000", "101006.218000", "101006.218000", "101006.218000", "101026.171000", "101026.171000", "101026.171000", "101026.171000", "101026.171000", "101026.187000", "101026.187000", "101026.187000", "101026.187000", "101026.187000", "101026.187000", "101026.187000", "101026.203000", "101026.203000", "101026.203000", "101026.203000", "101026.203000", "101026.203000", "101026.218000", "101026.218000", "101046.171000", "101046.171000", "101046.171000", "101046.171000", "101046.171000", "101046.187000", "101046.187000", "101046.187000", "101046.187000", "101046.187000", "101046.187000", "101046.203000", "101046.203000", "101046.203000", "101046.203000", "101046.203000", "101046.203000", "101046.203000", "101046.218000", "101046.218000", "101106.171000", "101106.171000", "101106.171000", "101106.171000", "101106.171000", "101106.187000", "101106.187000", "101106.187000", "101106.187000", "101106.187000", "101106.187000", "101106.187000", "101106.203000", "101106.203000", "101106.203000", "101106.203000", "101106.203000", "101106.203000", "101106.203000", "101106.203000", "101126.171000", "101126.171000", "101126.171000", "101126.171000", "101126.187000", "101126.187000", "101126.187000", "101126.187000", "101126.187000", "101126.187000", "101126.187000", "101126.187000", "101126.203000", "101126.203000", "101126.203000", "101126.203000", "101126.203000", "101126.203000", "101126.203000", "101126.218000", "101146.171000", "101146.171000", "101146.171000", "101146.171000", "101146.187000", "101146.187000", "101146.187000", "101146.187000", "101146.187000", "101146.187000", "101146.187000", "101146.187000", "101146.203000", "101146.203000", "101146.203000", "101146.203000", "101146.203000", "101146.203000", "101146.203000", "101146.218000", "101206.171000", "101206.171000", "101206.171000", "101206.187000", "101206.187000", "101206.187000", "101206.187000", "101206.187000", "101206.187000", "101206.187000", "101206.203000", "101206.203000", "101206.203000", "101206.203000", "101206.203000", "101206.203000", "101206.203000", "101206.218000", "101206.218000", "101206.218000", "101212.828000", "101212.843000"],
      "InstanceNumber": [1, 2, 3, 4, 5, 6, 7, 8, 9, 10, 11, 12, 13, 14, 15, 16, 17, 18, 19, 20, 21, 22, 23, 24, 25, 26, 27, 28, 29, 30, 31, 32, 33, 34, 35, 36, 37, 38, 39, 40, 41, 42, 43, 44, 45, 46, 47, 48, 49, 50, 51, 52, 53, 54, 55, 56, 57, 58, 59, 60, 61, 62, 63, 64, 65, 66, 67, 68, 69, 70, 71, 72, 73, 74, 75, 76, 77, 78, 79, 80, 81, 82, 83, 84, 85, 86, 87, 88, 89, 90, 91, 92, 93, 94, 95, 96, 97, 98, 99, 100, 101, 102, 103, 104, 105, 106, 107, 108, 109, 110, 111, 112, 113, 114, 115, 116, 117, 118, 119, 120, 121, 122, 123, 124, 125, 126, 127, 128, 129, 130, 131, 132, 133, 134, 135, 136, 137, 138, 139, 140, 141, 142, 143, 144, 145, 146, 147, 148, 149, 150, 151, 152, 153, 154, 155, 156, 157, 158, 159, 160, 161, 162, 163, 164, 165, 166, 167, 168, 169, 170, 171, 172, 173, 174, 175, 176, 177, 178, 179, 180, 181, 182, 183, 184, 185, 186, 187, 188, 189, 190, 191, 192, 193, 194, 195, 196, 197, 198, 199, 200, 201, 202, 203, 204, 205, 206, 207, 208, 209, 210, 211, 212, 213, 214, 215, 216, 217, 218, 219, 220, 221, 222, 223, 224, 225, 226, 227, 228, 229, 230, 231, 232, 233, 234, 235, 236, 237, 238, 239, 240, 241, 242, 243, 244, 245, 246, 247, 248, 249, 250, 251, 252, 253, 254, 255, 256, 257, 258, 259, 260, 261, 262, 263, 264, 265, 266, 267, 268, 269, 270, 271, 272, 273, 274, 275, 276, 277, 278, 279, 280, 281, 282, 283, 284, 285, 286, 287, 288, 289, 290, 291, 292, 293, 294, 295, 296, 297, 298, 299, 300, 301, 302, 303, 304, 305, 306, 307, 308, 309, 310, 311, 312, 313, 314, 315, 316, 317, 318, 319, 320, 321, 322, 323, 324, 325, 326, 327, 328, 329, 330],
      "LargestImagePixelValue": [1705, 1678, 1699, 1655, 1689, 1645, 1658, 1704, 1668, 1681, 1658, 1698, 1677, 1654, 1639, 1626, 1663, 1660, 1635, 1663, 1651, 1647, 1641, 1677, 1670, 1637, 1645, 1674, 1672, 1648, 1654, 1656, 1658, 1651, 1651, 1677, 1655, 1654, 1667, 1681, 1680, 1688, 1672, 1687, 1665, 1673, 1673, 1662, 1687, 1690, 1685, 1692, 1701, 1675, 1661, 1649, 1668, 1688, 1671, 1688, 1683, 1662, 1715, 1687, 1679, 1661, 1695, 1689, 1678, 1676, 1676, 1689, 1690, 1701, 1698, 1700, 1696, 1703, 1661, 1679, 1691, 1701, 1690, 1699, 1690, 1692, 1681, 1690, 1696, 1669, 1686, 1681, 1731, 1727, 1674, 1689, 1694, 1717, 1693, 1699, 1714, 1734, 1734, 1704, 1702, 1688, 1709, 1717, 1736, 1747, 1719, 1735, 1711, 1707, 1735, 1711, 1708, 1733, 1717, 1722, 1717, 1742, 1720, 1723, 1741, 1712, 1742, 1727, 1711, 1705, 1736, 1717, 1718, 1709, 1745, 1719, 1703, 1721, 1727, 1715, 1728, 1750, 1737, 1702, 1757, 1723, 1694, 1704, 1701, 1700, 1717, 1716, 1730, 1718, 1732, 1728, 1727, 1738, 1719, 1740, 1724, 1721, 1722, 1756, 1706, 1697, 1710, 1756, 1721, 1725, 1717, 1699, 1699, 1707, 1719, 1720, 1715, 1731, 1716, 1699, 1709, 1735, 1710, 1716, 1724, 1735, 1717, 1725, 1715, 1770, 1741, 1718, 1748, 1741, 1714, 1723, 1721, 1732, 1711, 1728, 1710, 1741, 1732, 1702, 1737, 1749, 1747, 1710, 1754, 1729, 1750, 1712, 1734, 1697, 1709, 1674, 1692, 1717, 1725, 1706, 1716, 1663, 1679, 1707, 1709, 1699, 1699, 1720, 1709, 1709, 1726, 1701, 1706, 1706, 1730, 1707, 1713, 1728, 1736, 1715, 1729, 1741, 1728, 1724, 1733, 1722, 1709, 1735, 1718, 1729, 1749, 1714, 1732, 1719, 1729, 1728, 1725, 1752, 1732, 1730, 1732, 1713, 1724, 1710, 1714, 1685, 1715, 1724, 1730, 1704, 1712, 1692, 1705, 1727, 1718, 1700, 1720, 1721, 1709, 1695, 1719, 1752, 1700, 1721, 1725, 1727, 1697, 1712, 1706, 1720, 1720, 1687, 1702, 1712, 1722, 1716, 1711, 1746, 1725, 1715, 1700, 1707, 1735, 1708, 1710, 1733, 1714, 1707, 1720, 1703, 1710, 1734, 1707, 1713, 1707, 1693, 1714, 1707, 1714, 1734, 1724, 1729, 1703, 1738, 1715, 1731, 1710, 1719, 1715, 1717],
      "WindowCenter": [372.0, 371.0, 370.0, 369.0, 369.0, 368.0, 369.0, 370.0, 370.0, 369.0, 368.0, 369.0, 368.0, 368.0, 367.0, 367.0, 367.0, 367.0, 367.0, 367.0, 367.0, 367.0, 367.0, 367.0, 367.0, 367.0, 367.0, 367.0, 367.0, 368.0, 368.0, 368.0, 368.0, 367.0, 368.0, 368.0, 369.0, 370.0, 369.0, 368.0, 368.0, 368.0, 369.0, 370.0, 371.0, 370.0, 369.0, 369.0, 369.0, 369.0, 369.0, 370.0, 369.0, 370.0, 370.0, 370.0, 369.0, 370.0, 370.0, 369.0, 369.0, 369.0, 369.0, 369.0, 369.0, 368.0, 369.0, 369.0, 369.0, 370.0, 370.0, 371.0, 371.0, 370.0, 370.0, 370.0, 370.0, 369.0, 369.0, 369.0, 369.0, 369.0, 369.0, 369.0, 371.0, 369.0, 369.0, 369.0, 369.0, 369.0, 371.0, 372.0, 373.0, 372.0, 372.0, 371.0, 369.0, 367.0, 368.0, 367.0, 368.0, 369.0, 369.0, 369.0, 370.0, 370.0, 369.0, 369.0, 369.0, 369.0, 369.0, 371.0, 372.0, 371.0, 370.0, 369.0, 369.0, 369.0, 369.0, 370.0, 370.0, 371.0, 372.0, 370.0, 370.0, 370.0, 370.0, 370.0, 369.0, 370.0, 369.0, 369.0, 370.0, 371.0, 370.0, 370.0, 370.0, 370.0, 369.0, 370.0, 370.0, 370.0, 371.0, 371.0, 370.0, 369.0, 370.0, 369.0, 369.0, 370.0, 370.0, 369.0, 369.0, 370.0, 369.0, 369.0, 370.0, 370.0, 371.0, 372.0, 370.0, 369.0, 369.0, 369.0, 368.0, 369.0, 371.0, 372.0, 372.0, 372.0, 371.0, 369.0, 369.0, 369.0, 369.0, 369.0, 369.0, 368.0, 368.0, 368.0, 369.0, 369.0, 369.0, 369.0, 369.0, 370.0, 369.0, 368.0, 370.0, 371.0, 371.0, 372.0, 372.0, 370.0, 369.0, 369.0, 371.0, 371.0, 371.0, 370.0, 370.0, 369.0, 369.0, 369.0, 370.0, 371.0, 371.0, 371.0, 371.0, 370.0, 370.0, 370.0, 370.0, 370.0, 371.0, 371.0, 371.0, 372.0, 372.0, 371.0, 371.0, 370.0, 371.0, 370.0, 370.0, 370.0, 370.0, 370.0, 370.0, 370.0, 370.0, 370.0, 370.0, 369.0, 369.0, 369.0, 369.0, 370.0, 370.0, 370.0, 369.0, 369.0, 369.0, 369.0, 369.0, 368.0, 369.0, 369.0, 370.0, 370.0, 370.0, 370.0, 370.0, 369.0, 369.0, 369.0, 370.0, 370.0, 371.0, 371.0, 370.0, 369.0, 369.0, 369.0, 369.0, 370.0, 370.0, 369.0, 371.0, 371.0, 370.0, 369.0, 369.0, 369.0, 369.0, 369.0, 370.0, 371.0, 371.0, 371.0, 370.0, 370.0, 370.0, 369.0, 370.0, 371.0, 369.0, 369.0, 369.0, 369.0, 368.0, 369.0, 370.0, 370.0, 370.0, 369.0, 369.0, 368.0, 369.0, 369.0, 369.0, 370.0, 371.0, 370.0, 370.0, 370.0, 369.0, 369.0, 369.0, 369.0, 370.0, 370.0, 369.0, 369.0, 369.0, 369.0, 370.0, 370.0, 370.0, 369.0, 369.0, 369.0, 368.0, 368.0, 369.0, 369.0, 369.0, 368.0, 368.0, 368.0],
