{
  "AcquisitionMatrixPE": 104,
  "AcquisitionNumber": 1,
  "AcquisitionTime": "09:28:20.380000",
  "BandwidthPerPixelPhaseEncode": 43.054,
  "BaseResolution": 104,
  "CoilString": "C:E1_2",
  "ConversionSoftware": "dcm2niix",
  "ConversionSoftwareVersion": "v1.0.20191031",
  "DerivedVendorReportedEchoSpacing": 0.000669999,
  "DeviceSerialNumber": "18932",
  "DwellTime": 2.8e-06,
  "EchoTime": 0.02,
  "EffectiveEchoSpacing": 0.000223333,
  "FlipAngle": 30,
  "ImageComments": "Unaliased_MB2_PE2",
  "ImageOrientationPatientDICOM": [1, 2e-16, 0, -2e-16, 0.965926, -0.258819],
  "ImageType": [
    "ORIGINAL",
    "PRIMARY",
    "M",
    "MB",
    "ND",
    "MOSAIC"
],
  "ImagingFrequency": 297.23,
  "InPlanePhaseEncodingDirectionDICOM": "COL",
  "InstitutionAddress": "Richmond_Street_North_1151_London_409EF2_Ontario_CA_N6A_5B7",
  "InstitutionName": "Robarts_Reserch_Institute",
  "InstitutionalDepartmentName": "Department",
  "MRAcquisitionType": "2D",
  "MagneticFieldStrength": 6.98,
  "Manufacturer": "Siemens",
  "ManufacturersModelName": "Investigational_Device_7T",
  "Modality": "MR",
  "MultibandAccelerationFactor": 2,
  "ParallelReductionFactorInPlane": 3,
  "PartialFourier": 0.875,
  "PatientPosition": "HFS",
  "PercentPhaseFOV": 100,
  "PhaseEncodingDirection": "j-",
  "PhaseEncodingSteps": 91,
  "PhaseResolution": 1,
  "PixelBandwidth": 1717,
  "ProcedureStepDescription": "Diedrichsen_SeqRep4",
  "ProtocolName": "mbep2d_bold_mb2_p3_AP_2iso",
  "PulseSequenceDetails": "%CustomerSeq%_cmrr_mbep2d_bold",
  "ReceiveCoilName": "CFMM_8Tx32Rx",
  "ReconMatrixPE": 104,
  "RefLinesPE": 36,
  "RepetitionTime": 1,
  "ScanOptions": "PFP_FS",
  "ScanningSequence": "EP",
  "SequenceName": "epfid2d1_104",
  "SequenceVariant": "SK_SS",
  "SeriesDescription": "mbep2d_bold_mb2_p3_AP_2iso",
  "SeriesNumber": 14,
  "ShimSetting": [-5, 1998, 309, 43, -98, -114, -302, -166],
  "SliceThickness": 2,
  "SliceTiming": [0, 0.2275, 0.455, 0.685, 0.9125, 0.1375, 0.365, 0.5925, 0.82, 0.045, 0.2725, 0.5025, 0.73, 0.9575, 0.1825, 0.41, 0.6375, 0.8675, 0.09, 0.32, 0.5475, 0.775, 0, 0.2275, 0.455, 0.685, 0.9125, 0.1375, 0.365, 0.5925, 0.82, 0.045, 0.2725, 0.5025, 0.73, 0.9575, 0.1825, 0.41, 0.6375, 0.8675, 0.09, 0.32, 0.5475, 0.775],
  "SoftwareVersions": "syngo_MR_B17",
  "SpacingBetweenSlices": 2,
  "StationName": "MASTER",
  "TaskName": "dsp",
  "TotalReadoutTime": 0.0230033,
  "TxRefAmp": 120,
  "dcmmeta_affine": [
    [-2.0, -4.000000067449534e-16, 1.035276159788667e-16, 103.27360534667969],
    [-4.000000067449534e-16, 1.9318516254425049, -0.517638087272644, -100.47244262695312],
    [0.0, 0.517638087272644, 1.9318516254425049, -65.80461883544922],
    [0.0, 0.0, 0.0, 1.0]
],
  "dcmmeta_reorient_transform": [
    [0.0, -1.0, 0.0, 103.0],
    [1.0, 0.0, 0.0, 0.0],
    [0.0, 0.0, 1.0, 0.0],
    [0.0, 0.0, 0.0, 1.0]
],
  "dcmmeta_shape": [104, 104, 44, 330],
  "dcmmeta_slice_dim": 2,
  "dcmmeta_version": 0.6,
  "global": {
    "const": {
      "AcquisitionMatrix": [104, 0, 0, 104],
      "AngioFlag": "N",
      "BitsAllocated": 16,
      "BitsStored": 12,
      "Columns": 728,
      "EchoNumbers": 1,
      "EchoTime": 20.0,
      "EchoTrainLength": 1,
      "FlipAngle": 30.0,
      "HighBit": 11,
      "ImageOrientationPatient": [1.0, 2e-16, 0.0, -2e-16, 0.9659258278573, -0.2588190392498],
      "ImagePositionPatient": [-727.27360773087, -701.24599295073, 149.01518168592],
      "ImageType": [
        "ORIGINAL",
        "PRIMARY",
        "M",
        "MB",
        "ND",
        "MOSAIC"
],
      "ImagedNucleus": "1H",
      "ImagingFrequency": 297.229838,
      "InPlanePhaseEncodingDirection": "COL",
      "MRAcquisitionType": "2D",
      "MagneticFieldStrength": 6.98,
      "Manufacturer": "SIEMENS",
      "ManufacturerModelName": "Investigational_Device_7T",
      "Modality": "MR",
      "NumberOfAverages": 1.0,
      "NumberOfPhaseEncodingSteps": 91,
      "PercentPhaseFieldOfView": 100.0,
      "PercentSampling": 100.0,
      "PerformedProcedureStepStartTime": "091301.203000",
      "PhotometricInterpretation": "MONOCHROME2",
      "PixelBandwidth": 1717.0,
      "PixelRepresentation": 0,
      "PixelSpacing": [2.0, 2.0],
      "ProtocolName": "mbep2d_bold_mb2_p3_AP 2iso",
      "RepetitionTime": 1000.0,
      "Rows": 728,
      "SAR": 0.0,
      "SamplesPerPixel": 1,
      "ScanOptions": [
        "PFP",
        "FS"
],
      "ScanningSequence": "EP",
      "SequenceName": "epfid2d1_104",
      "SequenceVariant": [
        "SK",
        "SS"
],
      "SeriesDescription": "mbep2d_bold_mb2_p3_AP 2iso",
      "SeriesNumber": 14,
      "SeriesTime": "092846.203000",
      "SliceLocation": -37.558201440006,
      "SliceThickness": 2.0,
      "SmallestImagePixelValue": 0,
      "SoftwareVersions": "syngo MR B17",
      "SpacingBetweenSlices": 2.0000000219488,
      "SpecificCharacterSet": "ISO_IR 100",
      "StudyID": "1",
      "StudyTime": "091301.140000",
      "TransmitCoilName": "CFMM_8Tx32Rx",
      "VariableFlipAngleFlag": "N",
      "WindowCenterWidthExplanation": "Algo1",
      "dBdt": 0.0},
    "slices": {}
  },
  "time": {
    "samples": {
      "AcquisitionNumber": [1, 2, 3, 4, 5, 6, 7, 8, 9, 10, 11, 12, 13, 14, 15, 16, 17, 18, 19, 20, 21, 22, 23, 24, 25, 26, 27, 28, 29, 30, 31, 32, 33, 34, 35, 36, 37, 38, 39, 40, 41, 42, 43, 44, 45, 46, 47, 48, 49, 50, 51, 52, 53, 54, 55, 56, 57, 58, 59, 60, 61, 62, 63, 64, 65, 66, 67, 68, 69, 70, 71, 72, 73, 74, 75, 76, 77, 78, 79, 80, 81, 82, 83, 84, 85, 86, 87, 88, 89, 90, 91, 92, 93, 94, 95, 96, 97, 98, 99, 100, 101, 102, 103, 104, 105, 106, 107, 108, 109, 110, 111, 112, 113, 114, 115, 116, 117, 118, 119, 120, 121, 122, 123, 124, 125, 126, 127, 128, 129, 130, 131, 132, 133, 134, 135, 136, 137, 138, 139, 140, 141, 142, 143, 144, 145, 146, 147, 148, 149, 150, 151, 152, 153, 154, 155, 156, 157, 158, 159, 160, 161, 162, 163, 164, 165, 166, 167, 168, 169, 170, 171, 172, 173, 174, 175, 176, 177, 178, 179, 180, 181, 182, 183, 184, 185, 186, 187, 188, 189, 190, 191, 192, 193, 194, 195, 196, 197, 198, 199, 200, 201, 202, 203, 204, 205, 206, 207, 208, 209, 210, 211, 212, 213, 214, 215, 216, 217, 218, 219, 220, 221, 222, 223, 224, 225, 226, 227, 228, 229, 230, 231, 232, 233, 234, 235, 236, 237, 238, 239, 240, 241, 242, 243, 244, 245, 246, 247, 248, 249, 250, 251, 252, 253, 254, 255, 256, 257, 258, 259, 260, 261, 262, 263, 264, 265, 266, 267, 268, 269, 270, 271, 272, 273, 274, 275, 276, 277, 278, 279, 280, 281, 282, 283, 284, 285, 286, 287, 288, 289, 290, 291, 292, 293, 294, 295, 296, 297, 298, 299, 300, 301, 302, 303, 304, 305, 306, 307, 308, 309, 310, 311, 312, 313, 314, 315, 316, 317, 318, 319, 320, 321, 322, 323, 324, 325, 326, 327, 328, 329, 330],
      "AcquisitionTime": ["092820.380000", "092821.385000", "092822.387500", "092823.392500", "092824.395000", "092825.400000", "092826.405000", "092827.407500", "092828.412500", "092829.415000", "092830.420000", "092831.425000", "092832.427500", "092833.432500", "092834.435000", "092835.440000", "092836.445000", "092837.447500", "092838.452500", "092839.457500", "092840.460000", "092841.465000", "092842.467500", "092843.472500", "092844.477500", "092845.480000", "092846.485000", "092847.487500", "092848.492500", "092849.497500", "092850.500000", "092851.505000", "092852.507500", "092853.512500", "092854.517500", "092855.520000", "092856.525000", "092857.527500", "092858.532500", "092859.537500", "092900.540000", "092901.545000", "092902.547500", "092903.552500", "092904.557500", "092905.560000", "092906.565000", "092907.567500", "092908.572500", "092909.577500", "092910.580000", "092911.585000", "092912.590000", "092913.592500", "092914.597500", "092915.600000", "092916.605000", "092917.610000", "092918.612500", "092919.617500", "092920.620000", "092921.625000", "092922.630000", "092923.632500", "092924.637500", "092925.640000", "092926.645000", "092927.650000", "092928.652500", "092929.657500", "092930.660000", "092931.665000", "092932.670000", "092933.672500", "092934.677500", "092935.680000", "092936.685000", "092937.690000", "092938.692500", "092939.697500", "092940.702500", "092941.705000", "092942.710000", "092943.712500", "092944.717500", "092945.722500", "092946.725000", "092947.730000", "092948.732500", "092949.737500", "092950.742500", "092951.745000", "092952.750000", "092953.752500", "092954.757500", "092955.762500", "092956.765000", "092957.770000", "092958.772500", "092959.777500", "093000.782500", "093001.785000", "093002.790000", "093003.792500", "093004.797500", "093005.802500", "093006.805000", "093007.810000", "093008.812500", "093009.817500", "093010.822500", "093011.825000", "093012.830000", "093013.835000", "093014.837500", "093015.842500", "093016.845000", "093017.850000", "093018.855000", "093019.857500", "093020.862500", "093021.865000", "093022.870000", "093023.875000", "093024.877500", "093025.882500", "093026.885000", "093027.890000", "093028.895000", "093029.897500", "093030.902500", "093031.905000", "093032.910000", "093033.915000", "093034.917500", "093035.922500", "093036.925000", "093037.930000", "093038.935000", "093039.937500", "093040.942500", "093041.947500", "093042.950000", "093043.955000", "093044.957500", "093045.962500", "093046.967500", "093047.970000", "093048.975000", "093049.977500", "093050.982500", "093051.987500", "093052.990000", "093053.995000", "093054.997500", "093056.002500", "093057.007500", "093058.010000", "093059.015000", "093100.017500", "093101.022500", "093102.027500", "093103.030000", "093104.035000", "093105.037500", "093106.042500", "093107.047500", "093108.050000", "093109.055000", "093110.057500", "093111.062500", "093112.067500", "093113.070000", "093114.075000", "093115.080000", "093116.082500", "093117.087500", "093118.090000", "093119.095000", "093120.100000", "093121.102500", "093122.107500", "093123.110000", "093124.115000", "093125.120000", "093126.122500", "093127.127500", "093128.130000", "093129.135000", "093130.140000", "093131.142500", "093132.147500", "093133.150000", "093134.155000", "093135.160000", "093136.162500", "093137.167500", "093138.170000", "093139.175000", "093140.180000", "093141.182500", "093142.187500", "093143.190000", "093144.195000", "093145.200000", "093146.202500", "093147.207500", "093148.212500", "093149.215000", "093150.220000", "093151.222500", "093152.227500", "093153.232500", "093154.235000", "093155.240000", "093156.242500", "093157.247500", "093158.252500", "093159.255000", "093200.260000", "093201.262500", "093202.267500", "093203.272500", "093204.275000", "093205.280000", "093206.282500", "093207.287500", "093208.292500", "093209.295000", "093210.300000", "093211.302500", "093212.307500", "093213.312500", "093214.315000", "093215.320000", "093216.325000", "093217.327500", "093218.332500", "093219.335000", "093220.340000", "093221.345000", "093222.347500", "093223.352500", "093224.355000", "093225.360000", "093226.365000", "093227.367500", "093228.372500", "093229.375000", "093230.380000", "093231.385000", "093232.387500", "093233.392500", "093234.395000", "093235.400000", "093236.405000", "093237.407500", "093238.412500", "093239.415000", "093240.420000", "093241.425000", "093242.427500", "093243.432500", "093244.435000", "093245.440000", "093246.445000", "093247.447500", "093248.452500", "093249.457500", "093250.460000", "093251.465000", "093252.467500", "093253.472500", "093254.477500", "093255.480000", "093256.485000", "093257.487500", "093258.492500", "093259.497500", "093300.500000", "093301.505000", "093302.507500", "093303.512500", "093304.517500", "093305.520000", "093306.525000", "093307.527500", "093308.532500", "093309.537500", "093310.540000", "093311.545000", "093312.547500", "093313.552500", "093314.557500", "093315.560000", "093316.565000", "093317.567500", "093318.572500", "093319.577500", "093320.580000", "093321.585000", "093322.590000", "093323.592500", "093324.597500", "093325.600000", "093326.605000", "093327.610000", "093328.612500", "093329.617500", "093330.620000", "093331.625000", "093332.630000", "093333.632500", "093334.637500", "093335.640000", "093336.645000", "093337.650000", "093338.652500", "093339.657500", "093340.660000", "093341.665000", "093342.670000", "093343.672500", "093344.677500", "093345.680000", "093346.685000", "093347.690000", "093348.692500", "093349.697500", "093350.702500"],
      "ContentTime": ["092846.203000", "092846.203000", "092846.218000", "092846.218000", "092846.218000", "092846.218000", "092846.218000", "092846.218000", "092846.218000", "092846.234000", "092846.234000", "092846.234000", "092846.234000", "092846.234000", "092846.234000", "092846.250000", "092846.250000", "092846.250000", "092846.250000", "092846.250000", "092846.250000", "092846.250000", "092846.265000", "092846.265000", "092906.171000", "092906.171000", "092906.171000", "092906.171000", "092906.171000", "092906.187000", "092906.187000", "092906.187000", "092906.187000", "092906.187000", "092906.187000", "092906.187000", "092906.187000", "092906.203000", "092906.203000", "092906.203000", "092906.203000", "092906.203000", "092906.203000", "092906.218000", "092926.171000", "092926.171000", "092926.171000", "092926.171000", "092926.171000", "092926.187000", "092926.187000", "092926.187000", "092926.187000", "092926.203000", "092926.203000", "092926.203000", "092926.203000", "092926.203000", "092926.203000", "092926.203000", "092926.218000", "092926.218000", "092926.218000", "092926.218000", "092946.171000", "092946.171000", "092946.171000", "092946.171000", "092946.171000", "092946.187000", "092946.187000", "092946.187000", "092946.187000", "092946.187000", "092946.187000", "092946.187000", "092946.203000", "092946.203000", "092946.203000", "092946.203000", "092946.203000", "092946.218000", "092946.218000", "092946.218000", "093006.171000", "093006.171000", "093006.171000", "093006.171000", "093006.171000", "093006.187000", "093006.187000", "093006.187000", "093006.187000", "093006.187000", "093006.187000", "093006.187000", "093006.203000", "093006.203000", "093006.203000", "093006.203000", "093006.203000", "093006.203000", "093006.203000", "093006.218000", "093026.171000", "093026.171000", "093026.171000", "093026.171000", "093026.171000", "093026.187000", "093026.187000", "093026.187000", "093026.187000", "093026.187000", "093026.187000", "093026.187000", "093026.187000", "093026.203000", "093026.203000", "093026.203000", "093026.203000", "093026.203000", "093026.203000", "093026.203000", "093046.171000", "093046.171000", "093046.171000", "093046.171000", "093046.171000", "093046.187000", "093046.187000", "093046.187000", "093046.187000", "093046.187000", "093046.187000", "093046.187000", "093046.187000", "093046.203000", "093046.203000", "093046.203000", "093046.203000", "093046.218000", "093046.218000", "093046.218000", "093106.171000", "093106.171000", "093106.171000", "093106.171000", "093106.171000", "093106.187000", "093106.187000", "093106.187000", "093106.187000", "093106.203000", "093106.203000", "093106.203000", "093106.203000", "093106.203000", "093106.218000", "093106.218000", "093106.218000", "093106.218000", "093106.218000", "093106.218000", "093126.171000", "093126.171000", "093126.171000", "093126.171000", "093126.171000", "093126.187000", "093126.187000", "093126.187000", "093126.187000", "093126.187000", "093126.187000", "093126.187000", "093126.187000", "093126.203000", "093126.203000", "093126.203000", "093126.203000", "093126.203000", "093126.203000", "093126.218000", "093146.171000", "093146.171000", "093146.171000", "093146.171000", "093146.187000", "093146.187000", "093146.187000", "093146.187000", "093146.187000", "093146.187000", "093146.187000", "093146.203000", "093146.203000", "093146.203000", "093146.203000", "093146.203000", "093146.203000", "093146.203000", "093146.203000", "093146.218000", "093206.171000", "093206.171000", "093206.171000", "093206.171000", "093206.171000", "093206.187000", "093206.187000", "093206.187000", "093206.187000", "093206.187000", "093206.187000", "093206.187000", "093206.187000", "093206.203000", "093206.203000", "093206.203000", "093206.203000", "093206.203000", "093206.203000", "093206.203000", "093226.171000", "093226.171000", "093226.171000", "093226.171000", "093226.171000", "093226.187000", "093226.187000", "093226.187000", "093226.187000", "093226.187000", "093226.187000", "093226.187000", "093226.187000", "093226.203000", "093226.203000", "093226.203000", "093226.203000", "093226.203000", "093226.203000", "093226.203000", "093246.171000", "093246.171000", "093246.171000", "093246.171000", "093246.171000", "093246.187000", "093246.187000", "093246.187000", "093246.187000", "093246.187000", "093246.187000", "093246.187000", "093246.203000", "093246.203000", "093246.203000", "093246.203000", "093246.203000", "093246.203000", "093246.203000", "093246.203000", "093306.171000", "093306.171000", "093306.171000", "093306.171000", "093306.171000", "093306.187000", "093306.187000", "093306.187000", "093306.187000", "093306.187000", "093306.187000", "093306.187000", "093306.187000", "093306.203000", "093306.203000", "093306.203000", "093306.203000", "093306.203000", "093306.203000", "093306.203000", "093326.171000", "093326.171000", "093326.171000", "093326.171000", "093326.171000", "093326.187000", "093326.187000", "093326.187000", "093326.187000", "093326.187000", "093326.187000", "093326.187000", "093326.203000", "093326.203000", "093326.203000", "093326.203000", "093326.203000", "093326.203000", "093326.203000", "093326.203000", "093346.171000", "093346.171000", "093346.171000", "093346.187000", "093346.187000", "093346.187000", "093346.187000", "093346.187000", "093346.203000", "093346.203000", "093346.203000", "093346.203000", "093346.203000", "093346.203000", "093346.203000", "093346.218000", "093346.218000", "093346.218000", "093346.218000", "093346.218000", "093356.281000", "093356.296000", "093356.296000", "093356.296000", "093356.296000", "093356.296000"],
      "InstanceCreationTime": ["092846.203000", "092846.203000", "092846.218000", "092846.218000", "092846.218000", "092846.218000", "092846.218000", "092846.218000", "092846.218000", "092846.234000", "092846.234000", "092846.234000", "092846.234000", "092846.234000", "092846.234000", "092846.250000", "092846.250000", "092846.250000", "092846.250000", "092846.250000", "092846.250000", "092846.250000", "092846.265000", "092846.265000", "092906.171000", "092906.171000", "092906.171000", "092906.171000", "092906.171000", "092906.187000", "092906.187000", "092906.187000", "092906.187000", "092906.187000", "092906.187000", "092906.187000", "092906.187000", "092906.203000", "092906.203000", "092906.203000", "092906.203000", "092906.203000", "092906.203000", "092906.218000", "092926.171000", "092926.171000", "092926.171000", "092926.171000", "092926.171000", "092926.187000", "092926.187000", "092926.187000", "092926.187000", "092926.203000", "092926.203000", "092926.203000", "092926.203000", "092926.203000", "092926.203000", "092926.203000", "092926.218000", "092926.218000", "092926.218000", "092926.218000", "092946.171000", "092946.171000", "092946.171000", "092946.171000", "092946.171000", "092946.187000", "092946.187000", "092946.187000", "092946.187000", "092946.187000", "092946.187000", "092946.187000", "092946.203000", "092946.203000", "092946.203000", "092946.203000", "092946.203000", "092946.218000", "092946.218000", "092946.218000", "093006.171000", "093006.171000", "093006.171000", "093006.171000", "093006.171000", "093006.187000", "093006.187000", "093006.187000", "093006.187000", "093006.187000", "093006.187000", "093006.187000", "093006.203000", "093006.203000", "093006.203000", "093006.203000", "093006.203000", "093006.203000", "093006.203000", "093006.218000", "093026.171000", "093026.171000", "093026.171000", "093026.171000", "093026.171000", "093026.187000", "093026.187000", "093026.187000", "093026.187000", "093026.187000", "093026.187000", "093026.187000", "093026.187000", "093026.203000", "093026.203000", "093026.203000", "093026.203000", "093026.203000", "093026.203000", "093026.203000", "093046.171000", "093046.171000", "093046.171000", "093046.171000", "093046.171000", "093046.187000", "093046.187000", "093046.187000", "093046.187000", "093046.187000", "093046.187000", "093046.187000", "093046.187000", "093046.203000", "093046.203000", "093046.203000", "093046.203000", "093046.218000", "093046.218000", "093046.218000", "093106.171000", "093106.171000", "093106.171000", "093106.171000", "093106.171000", "093106.187000", "093106.187000", "093106.187000", "093106.187000", "093106.203000", "093106.203000", "093106.203000", "093106.203000", "093106.203000", "093106.218000", "093106.218000", "093106.218000", "093106.218000", "093106.218000", "093106.218000", "093126.171000", "093126.171000", "093126.171000", "093126.171000", "093126.171000", "093126.187000", "093126.187000", "093126.187000", "093126.187000", "093126.187000", "093126.187000", "093126.187000", "093126.187000", "093126.203000", "093126.203000", "093126.203000", "093126.203000", "093126.203000", "093126.203000", "093126.218000", "093146.171000", "093146.171000", "093146.171000", "093146.171000", "093146.187000", "093146.187000", "093146.187000", "093146.187000", "093146.187000", "093146.187000", "093146.187000", "093146.203000", "093146.203000", "093146.203000", "093146.203000", "093146.203000", "093146.203000", "093146.203000", "093146.203000", "093146.218000", "093206.171000", "093206.171000", "093206.171000", "093206.171000", "093206.171000", "093206.187000", "093206.187000", "093206.187000", "093206.187000", "093206.187000", "093206.187000", "093206.187000", "093206.187000", "093206.203000", "093206.203000", "093206.203000", "093206.203000", "093206.203000", "093206.203000", "093206.203000", "093226.171000", "093226.171000", "093226.171000", "093226.171000", "093226.171000", "093226.187000", "093226.187000", "093226.187000", "093226.187000", "093226.187000", "093226.187000", "093226.187000", "093226.187000", "093226.203000", "093226.203000", "093226.203000", "093226.203000", "093226.203000", "093226.203000", "093226.203000", "093246.171000", "093246.171000", "093246.171000", "093246.171000", "093246.171000", "093246.187000", "093246.187000", "093246.187000", "093246.187000", "093246.187000", "093246.187000", "093246.187000", "093246.203000", "093246.203000", "093246.203000", "093246.203000", "093246.203000", "093246.203000", "093246.203000", "093246.203000", "093306.171000", "093306.171000", "093306.171000", "093306.171000", "093306.171000", "093306.187000", "093306.187000", "093306.187000", "093306.187000", "093306.187000", "093306.187000", "093306.187000", "093306.187000", "093306.203000", "093306.203000", "093306.203000", "093306.203000", "093306.203000", "093306.203000", "093306.203000", "093326.171000", "093326.171000", "093326.171000", "093326.171000", "093326.171000", "093326.187000", "093326.187000", "093326.187000", "093326.187000", "093326.187000", "093326.187000", "093326.187000", "093326.203000", "093326.203000", "093326.203000", "093326.203000", "093326.203000", "093326.203000", "093326.203000", "093326.203000", "093346.171000", "093346.171000", "093346.171000", "093346.187000", "093346.187000", "093346.187000", "093346.187000", "093346.187000", "093346.203000", "093346.203000", "093346.203000", "093346.203000", "093346.203000", "093346.203000", "093346.203000", "093346.218000", "093346.218000", "093346.218000", "093346.218000", "093346.218000", "093356.281000", "093356.296000", "093356.296000", "093356.296000", "093356.296000", "093356.296000"],
      "InstanceNumber": [1, 2, 3, 4, 5, 6, 7, 8, 9, 10, 11, 12, 13, 14, 15, 16, 17, 18, 19, 20, 21, 22, 23, 24, 25, 26, 27, 28, 29, 30, 31, 32, 33, 34, 35, 36, 37, 38, 39, 40, 41, 42, 43, 44, 45, 46, 47, 48, 49, 50, 51, 52, 53, 54, 55, 56, 57, 58, 59, 60, 61, 62, 63, 64, 65, 66, 67, 68, 69, 70, 71, 72, 73, 74, 75, 76, 77, 78, 79, 80, 81, 82, 83, 84, 85, 86, 87, 88, 89, 90, 91, 92, 93, 94, 95, 96, 97, 98, 99, 100, 101, 102, 103, 104, 105, 106, 107, 108, 109, 110, 111, 112, 113, 114, 115, 116, 117, 118, 119, 120, 121, 122, 123, 124, 125, 126, 127, 128, 129, 130, 131, 132, 133, 134, 135, 136, 137, 138, 139, 140, 141, 142, 143, 144, 145, 146, 147, 148, 149, 150, 151, 152, 153, 154, 155, 156, 157, 158, 159, 160, 161, 162, 163, 164, 165, 166, 167, 168, 169, 170, 171, 172, 173, 174, 175, 176, 177, 178, 179, 180, 181, 182, 183, 184, 185, 186, 187, 188, 189, 190, 191, 192, 193, 194, 195, 196, 197, 198, 199, 200, 201, 202, 203, 204, 205, 206, 207, 208, 209, 210, 211, 212, 213, 214, 215, 216, 217, 218, 219, 220, 221, 222, 223, 224, 225, 226, 227, 228, 229, 230, 231, 232, 233, 234, 235, 236, 237, 238, 239, 240, 241, 242, 243, 244, 245, 246, 247, 248, 249, 250, 251, 252, 253, 254, 255, 256, 257, 258, 259, 260, 261, 262, 263, 264, 265, 266, 267, 268, 269, 270, 271, 272, 273, 274, 275, 276, 277, 278, 279, 280, 281, 282, 283, 284, 285, 286, 287, 288, 289, 290, 291, 292, 293, 294, 295, 296, 297, 298, 299, 300, 301, 302, 303, 304, 305, 306, 307, 308, 309, 310, 311, 312, 313, 314, 315, 316, 317, 318, 319, 320, 321, 322, 323, 324, 325, 326, 327, 328, 329, 330],
      "LargestImagePixelValue": [1690, 1657, 1683, 1675, 1705, 1652, 1669, 1679, 1699, 1655, 1661, 1670, 1676, 1628, 1648, 1658, 1724, 1725, 1660, 1699, 1669, 1713, 1648, 1695, 1660, 1680, 1697, 1683, 1706, 1707, 1666, 1656, 1666, 1686, 1671, 1684, 1689, 1725, 1698, 1664, 1678, 1676, 1676, 1673, 1664, 1656, 1645, 1664, 1679, 1647, 1664, 1668, 1690, 1698, 1688, 1664, 1669, 1744, 1700, 1699, 1674, 1704, 1691, 1684, 1667, 1710, 1683, 1661, 1700, 1708, 1717, 1723, 1646, 1720, 1689, 1693, 1676, 1661, 1692, 1671, 1667, 1721, 1681, 1688, 1685, 1709, 1695, 1684, 1696, 1696, 1656, 1672, 1686, 1683, 1685, 1700, 1711, 1701, 1708, 1700, 1713, 1684, 1717, 1715, 1738, 1689, 1729, 1708, 1629, 1722, 1703, 1714, 1711, 1714, 1732, 1709, 1697, 1709, 1735, 1699, 1692, 1750, 1675, 1691, 1669, 1650, 1696, 1686, 1667, 1656, 1683, 1669, 1646, 1674, 1726, 1671, 1723, 1684, 1684, 1702, 1710, 1719, 1665, 1742, 1727, 1686, 1697, 1646, 1679, 1639, 1669, 1646, 1725, 1712, 1705, 1680, 1649, 1686, 1668, 1681, 1660, 1648, 1661, 1644, 1663, 1649, 1646, 1617, 1618, 1677, 1648, 1602, 1659, 1638, 1661, 1640, 1641, 1639, 1672, 1650, 1615, 1623, 1649, 1710, 1655, 1635, 1670, 1620, 1660, 1691, 1653, 1686, 1646, 1668, 1637, 1646, 1664, 1635, 1641, 1696, 1667, 1640, 1648, 1599, 1661, 1635, 1651, 1606, 1644, 1631, 1620, 1640, 1635, 1627, 1625, 1645, 1672, 1664, 1655, 1664, 1686, 1666, 1664, 1647, 1660, 1690, 1671, 1649, 1657, 1671, 1637, 1650, 1667, 1661, 1643, 1651, 1662, 1659, 1656, 1606, 1617, 1634, 1644, 1659, 1624, 1681, 1685, 1634, 1627, 1681, 1695, 1676, 1659, 1664, 1636, 1650, 1631, 1677, 1682, 1652, 1675, 1627, 1666, 1649, 1672, 1635, 1616, 1661, 1645, 1664, 1649, 1681, 1661, 1673, 1678, 1669, 1668, 1682, 1661, 1644, 1646, 1654, 1634, 1654, 1650, 1649, 1630, 1664, 1706, 1646, 1684, 1615, 1641, 1657, 1640, 1625, 1621, 1612, 1586, 1613, 1662, 1645, 1647, 1657, 1641, 1635, 1624, 1617, 1600, 1627, 1628, 1610, 1668, 1615, 1618, 1628, 1617, 1663, 1630, 1647, 1581, 1628, 1656, 1665, 1620, 1631, 1633, 1647, 1616, 1681],
      "WindowCenter": [371.0, 371.0, 372.0, 372.0, 372.0, 371.0, 371.0, 371.0, 371.0, 370.0, 369.0, 369.0, 369.0, 369.0, 370.0, 371.0, 372.0, 374.0, 373.0, 373.0, 373.0, 372.0, 370.0, 371.0, 370.0, 371.0, 372.0, 372.0, 372.0, 372.0, 370.0, 371.0, 372.0, 372.0, 372.0, 372.0, 372.0, 372.0, 372.0, 372.0, 372.0, 372.0, 372.0, 372.0, 372.0, 372.0, 372.0, 372.0, 372.0, 372.0, 373.0, 372.0, 372.0, 372.0, 371.0, 370.0, 370.0, 371.0, 371.0, 372.0, 372.0, 372.0, 373.0, 373.0, 371.0, 372.0, 372.0, 372.0, 372.0, 372.0, 372.0, 372.0, 372.0, 372.0, 372.0, 373.0, 373.0, 371.0, 372.0, 372.0, 371.0, 372.0, 371.0, 372.0, 371.0, 371.0, 372.0, 372.0, 372.0, 372.0, 373.0, 374.0, 374.0, 375.0, 374.0, 373.0, 372.0, 372.0, 372.0, 372.0, 371.0, 371.0, 373.0, 373.0, 372.0, 372.0, 372.0, 372.0, 370.0, 371.0, 372.0, 372.0, 372.0, 372.0, 372.0, 371.0, 372.0, 373.0, 373.0, 374.0, 374.0, 376.0, 375.0, 376.0, 375.0, 374.0, 373.0, 372.0, 373.0, 373.0, 373.0, 373.0, 374.0, 374.0, 374.0, 374.0, 374.0, 373.0, 373.0, 374.0, 374.0, 373.0, 373.0, 374.0, 376.0, 375.0, 375.0, 374.0, 373.0, 372.0, 372.0, 373.0, 374.0, 375.0, 376.0, 376.0, 374.0, 374.0, 374.0, 373.0, 372.0, 373.0, 374.0, 374.0, 374.0, 374.0, 373.0, 372.0, 372.0, 373.0, 373.0, 373.0, 374.0, 373.0, 373.0, 373.0, 372.0, 373.0, 373.0, 373.0, 372.0, 372.0, 372.0, 372.0, 372.0, 372.0, 373.0, 374.0, 374.0, 373.0, 372.0, 372.0, 371.0, 372.0, 372.0, 373.0, 373.0, 372.0, 372.0, 372.0, 372.0, 373.0, 374.0, 374.0, 374.0, 373.0, 372.0, 371.0, 372.0, 371.0, 372.0, 373.0, 373.0, 374.0, 374.0, 373.0, 373.0, 372.0, 372.0, 373.0, 373.0, 373.0, 372.0, 372.0, 373.0, 372.0, 372.0, 373.0, 375.0, 376.0, 375.0, 375.0, 374.0, 374.0, 373.0, 373.0, 374.0, 374.0, 374.0, 373.0, 374.0, 374.0, 373.0, 373.0, 373.0, 373.0, 373.0, 374.0, 375.0, 375.0, 375.0, 375.0, 375.0, 374.0, 374.0, 374.0, 373.0, 373.0, 373.0, 375.0, 375.0, 375.0, 375.0, 374.0, 374.0, 373.0, 372.0, 372.0, 373.0, 373.0, 373.0, 374.0, 375.0, 374.0, 373.0, 373.0, 373.0, 373.0, 373.0, 373.0, 375.0, 375.0, 374.0, 375.0, 373.0, 372.0, 372.0, 371.0, 372.0, 371.0, 372.0, 372.0, 373.0, 375.0, 374.0, 374.0, 374.0, 372.0, 371.0, 372.0, 372.0, 373.0, 373.0, 373.0, 373.0, 373.0, 374.0, 374.0, 373.0, 372.0, 371.0, 371.0, 372.0, 371.0, 372.0, 373.0, 373.0, 373.0, 373.0, 371.0, 371.0, 371.0, 372.0, 372.0, 373.0, 374.0, 373.0, 374.0, 373.0, 373.0],
