{
  "AcquisitionMatrixPE": 104,
  "AcquisitionNumber": 1,
  "AcquisitionTime": "12:13:15.367500",
  "BandwidthPerPixelPhaseEncode": 43.054,
  "BaseResolution": 104,
  "CoilString": "C:E1,2",
  "ConversionSoftware": "dcm2niix",
  "ConversionSoftwareVersion": "v1.0.20201020",
  "DerivedVendorReportedEchoSpacing": 0.000669999,
  "DeviceSerialNumber": "18932",
  "DwellTime": 2.8e-06,
  "EchoTime": 0.02,
  "EffectiveEchoSpacing": 0.000223333,
  "FlipAngle": 30,
  "ImageComments": "Unaliased MB2/PE2",
  "ImageOrientationPatientDICOM": [1, 0, 0, 0, 0.997916, -0.0645323],
  "ImageType": [
    "ORIGINAL",
    "PRIMARY",
    "M",
    "MB",
    "ND",
    "MOSAIC"
],
  "ImagingFrequency": 297.229,
  "InPlanePhaseEncodingDirectionDICOM": "COL",
  "InstitutionAddress": "Richmond Street North 1151,London /409EF2/,Ontario,CA,N6A 5B7",
  "InstitutionName": "Robarts Reserch Institute",
  "InstitutionalDepartmentName": "Department",
  "MRAcquisitionType": "2D",
  "MagneticFieldStrength": 6.98,
  "Manufacturer": "Siemens",
  "ManufacturersModelName": "Investigational_Device_7T",
  "Modality": "MR",
  "MultibandAccelerationFactor": 2,
  "ParallelReductionFactorInPlane": 3,
  "PartialFourier": 0.875,
  "PatientPosition": "HFS",
  "PercentPhaseFOV": 100,
  "PercentSampling": 100,
  "PhaseEncodingDirection": "j-",
  "PhaseEncodingSteps": 91,
  "PhaseResolution": 1,
  "PixelBandwidth": 1717,
  "ProcedureStepDescription": "Diedrichsen^SeqRep4",
  "ProtocolName": "mbep2d_bold_mb2_p3_AP 2iso",
  "PulseSequenceDetails": "%CustomerSeq%\\cmrr_mbep2d_bold",
  "ReceiveCoilName": "CFMM_8Tx32Rx",
  "ReconMatrixPE": 104,
  "RefLinesPE": 36,
  "RepetitionTime": 1,
  "ScanOptions": "PFP\\FS",
  "ScanningSequence": "EP",
  "SequenceName": "epfid2d1_104",
  "SequenceVariant": "SK\\SS",
  "SeriesDescription": "mbep2d_bold_mb2_p3_AP 2iso",
  "SeriesNumber": 8,
  "ShimSetting": [33, 2030, 91, 1483, 117, 146, 149, -124],
  "SliceThickness": 2,
  "SliceTiming": [0, 0.2275, 0.455, 0.6825, 0.9125, 0.135, 0.365, 0.5925, 0.82, 0.045, 0.2725, 0.5, 0.73, 0.9575, 0.1825, 0.41, 0.6375, 0.865, 0.09, 0.3175, 0.5475, 0.775, 0, 0.2275, 0.455, 0.6825, 0.9125, 0.135, 0.365, 0.5925, 0.82, 0.045, 0.2725, 0.5, 0.73, 0.9575, 0.1825, 0.41, 0.6375, 0.865, 0.09, 0.3175, 0.5475, 0.775],
  "SoftwareVersions": "syngo MR B17",
  "SpacingBetweenSlices": 2,
  "StationName": "MASTER",
  "TaskName": "dsp",
  "TotalReadoutTime": 0.0230033,
  "TxRefAmp": 120,
  "dcmmeta_affine": [
    [-2.0, 0.0, 0.0, 110.53752899169922],
    [0.0, 1.9958312511444092, -0.12906460464000702, -93.92992401123047],
    [0.0, 0.1290646195411682, 1.9958311319351196, -24.118383407592773],
    [0.0, 0.0, 0.0, 1.0]
],
  "dcmmeta_reorient_transform": [
    [0.0, -1.0, 0.0, 103.0],
    [1.0, 0.0, 0.0, 0.0],
    [0.0, 0.0, 1.0, 0.0],
    [0.0, 0.0, 0.0, 1.0]
],
  "dcmmeta_shape": [104, 104, 44, 330],
  "dcmmeta_slice_dim": 2,
  "dcmmeta_version": 0.6,
  "global": {
    "const": {
      "AcquisitionMatrix": [104, 0, 0, 104],
      "AngioFlag": "N",
      "BitsAllocated": 16,
      "BitsStored": 12,
      "Columns": 728,
      "EchoNumbers": 1,
      "EchoTime": 20.0,
      "EchoTrainLength": 1,
      "FlipAngle": 30.0,
      "HighBit": 11,
      "ImageOrientationPatient": [1.0, 0.0, 0.0, 0.0, 0.99791561827596, -0.0645323081945],
      "ImagePositionPatient": [-734.53753042221, -734.34003680259, 29.443433329455],
      "ImageType": [
        "ORIGINAL",
        "PRIMARY",
        "M",
        "MB",
        "ND",
        "MOSAIC"
],
      "ImagedNucleus": "1H",
      "ImagingFrequency": 297.228954,
      "InPlanePhaseEncodingDirection": "COL",
      "MRAcquisitionType": "2D",
      "MagneticFieldStrength": 6.98,
      "Manufacturer": "SIEMENS",
      "ManufacturerModelName": "Investigational_Device_7T",
      "Modality": "MR",
      "NumberOfAverages": 1.0,
      "NumberOfPhaseEncodingSteps": 91,
      "PercentPhaseFieldOfView": 100.0,
      "PercentSampling": 100.0,
      "PerformedProcedureStepStartTime": "115702.187000",
      "PhotometricInterpretation": "MONOCHROME2",
      "PixelBandwidth": 1717.0,
      "PixelRepresentation": 0,
      "PixelSpacing": [2.0, 2.0],
      "ProtocolName": "mbep2d_bold_mb2_p3_AP 2iso",
      "RepetitionTime": 1000.0,
      "Rows": 728,
      "SAR": 0.0,
      "SamplesPerPixel": 1,
      "ScanOptions": [
        "PFP",
        "FS"
],
      "ScanningSequence": "EP",
      "SequenceName": "epfid2d1_104",
      "SequenceVariant": [
        "SK",
        "SS"
],
      "SeriesDescription": "mbep2d_bold_mb2_p3_AP 2iso",
      "SeriesNumber": 8,
      "SeriesTime": "121346.312000",
      "SliceLocation": -18.006595599367,
      "SliceThickness": 2.0,
      "SmallestImagePixelValue": 0,
      "SoftwareVersions": "syngo MR B17",
      "SpacingBetweenSlices": 1.9999999200773,
      "SpecificCharacterSet": "ISO_IR 100",
      "StudyID": "2",
      "StudyTime": "115702.140000",
      "TransmitCoilName": "CFMM_8Tx32Rx",
      "VariableFlipAngleFlag": "N",
      "WindowCenterWidthExplanation": "Algo1",
      "dBdt": 0.0},
    "slices": {}
  },
  "time": {
    "samples": {
      "AcquisitionNumber": [1, 2, 3, 4, 5, 6, 7, 8, 9, 10, 11, 12, 13, 14, 15, 16, 17, 18, 19, 20, 21, 22, 23, 24, 25, 26, 27, 28, 29, 30, 31, 32, 33, 34, 35, 36, 37, 38, 39, 40, 41, 42, 43, 44, 45, 46, 47, 48, 49, 50, 51, 52, 53, 54, 55, 56, 57, 58, 59, 60, 61, 62, 63, 64, 65, 66, 67, 68, 69, 70, 71, 72, 73, 74, 75, 76, 77, 78, 79, 80, 81, 82, 83, 84, 85, 86, 87, 88, 89, 90, 91, 92, 93, 94, 95, 96, 97, 98, 99, 100, 101, 102, 103, 104, 105, 106, 107, 108, 109, 110, 111, 112, 113, 114, 115, 116, 117, 118, 119, 120, 121, 122, 123, 124, 125, 126, 127, 128, 129, 130, 131, 132, 133, 134, 135, 136, 137, 138, 139, 140, 141, 142, 143, 144, 145, 146, 147, 148, 149, 150, 151, 152, 153, 154, 155, 156, 157, 158, 159, 160, 161, 162, 163, 164, 165, 166, 167, 168, 169, 170, 171, 172, 173, 174, 175, 176, 177, 178, 179, 180, 181, 182, 183, 184, 185, 186, 187, 188, 189, 190, 191, 192, 193, 194, 195, 196, 197, 198, 199, 200, 201, 202, 203, 204, 205, 206, 207, 208, 209, 210, 211, 212, 213, 214, 215, 216, 217, 218, 219, 220, 221, 222, 223, 224, 225, 226, 227, 228, 229, 230, 231, 232, 233, 234, 235, 236, 237, 238, 239, 240, 241, 242, 243, 244, 245, 246, 247, 248, 249, 250, 251, 252, 253, 254, 255, 256, 257, 258, 259, 260, 261, 262, 263, 264, 265, 266, 267, 268, 269, 270, 271, 272, 273, 274, 275, 276, 277, 278, 279, 280, 281, 282, 283, 284, 285, 286, 287, 288, 289, 290, 291, 292, 293, 294, 295, 296, 297, 298, 299, 300, 301, 302, 303, 304, 305, 306, 307, 308, 309, 310, 311, 312, 313, 314, 315, 316, 317, 318, 319, 320, 321, 322, 323, 324, 325, 326, 327, 328, 329, 330],
      "AcquisitionTime": ["121315.367500", "121316.370000", "121317.375000", "121318.380000", "121319.382500", "121320.387500", "121321.390000", "121322.395000", "121323.400000", "121324.402500", "121325.407500", "121326.410000", "121327.415000", "121328.420000", "121329.422500", "121330.427500", "121331.430000", "121332.435000", "121333.440000", "121334.442500", "121335.447500", "121336.450000", "121337.455000", "121338.460000", "121339.462500", "121340.467500", "121341.470000", "121342.475000", "121343.480000", "121344.482500", "121345.487500", "121346.492500", "121347.495000", "121348.500000", "121349.502500", "121350.507500", "121351.512500", "121352.515000", "121353.520000", "121354.522500", "121355.527500", "121356.532500", "121357.535000", "121358.540000", "121359.542500", "121400.547500", "121401.552500", "121402.555000", "121403.560000", "121404.562500", "121405.567500", "121406.572500", "121407.575000", "121408.580000", "121409.582500", "121410.587500", "121411.592500", "121412.595000", "121413.600000", "121414.605000", "121415.607500", "121416.612500", "121417.615000", "121418.620000", "121419.625000", "121420.627500", "121421.632500", "121422.635000", "121423.640000", "121424.645000", "121425.647500", "121426.652500", "121427.655000", "121428.660000", "121429.665000", "121430.667500", "121431.672500", "121432.675000", "121433.680000", "121434.685000", "121435.687500", "121436.692500", "121437.695000", "121438.700000", "121439.705000", "121440.707500", "121441.712500", "121442.715000", "121443.720000", "121444.725000", "121445.727500", "121446.732500", "121447.737500", "121448.740000", "121449.745000", "121450.747500", "121451.752500", "121452.757500", "121453.760000", "121454.765000", "121455.767500", "121456.772500", "121457.777500", "121458.780000", "121459.785000", "121500.787500", "121501.792500", "121502.797500", "121503.800000", "121504.805000", "121505.807500", "121506.812500", "121507.817500", "121508.820000", "121509.825000", "121510.827500", "121511.832500", "121512.837500", "121513.840000", "121514.845000", "121515.847500", "121516.852500", "121517.857500", "121518.860000", "121519.865000", "121520.870000", "121521.872500", "121522.877500", "121523.880000", "121524.885000", "121525.890000", "121526.892500", "121527.897500", "121528.900000", "121529.905000", "121530.910000", "121531.912500", "121532.917500", "121533.920000", "121534.925000", "121535.930000", "121536.932500", "121537.937500", "121538.940000", "121539.945000", "121540.950000", "121541.952500", "121542.957500", "121543.960000", "121544.965000", "121545.970000", "121546.972500", "121547.977500", "121548.982500", "121549.985000", "121550.990000", "121551.992500", "121552.997500", "121554.002500", "121555.005000", "121556.010000", "121557.012500", "121558.017500", "121559.022500", "121600.025000", "121601.030000", "121602.032500", "121603.037500", "121604.042500", "121605.045000", "121606.050000", "121607.052500", "121608.057500", "121609.062500", "121610.065000", "121611.070000", "121612.072500", "121613.077500", "121614.082500", "121615.085000", "121616.090000", "121617.092500", "121618.097500", "121619.102500", "121620.105000", "121621.110000", "121622.115000", "121623.117500", "121624.122500", "121625.125000", "121626.130000", "121627.135000", "121628.137500", "121629.142500", "121630.145000", "121631.150000", "121632.155000", "121633.157500", "121634.162500", "121635.165000", "121636.170000", "121637.175000", "121638.177500", "121639.182500", "121640.185000", "121641.190000", "121642.195000", "121643.197500", "121644.202500", "121645.205000", "121646.210000", "121647.215000", "121648.217500", "121649.222500", "121650.227500", "121651.230000", "121652.235000", "121653.237500", "121654.242500", "121655.247500", "121656.250000", "121657.255000", "121658.257500", "121659.262500", "121700.267500", "121701.270000", "121702.275000", "121703.277500", "121704.282500", "121705.287500", "121706.290000", "121707.295000", "121708.297500", "121709.302500", "121710.307500", "121711.310000", "121712.315000", "121713.317500", "121714.322500", "121715.327500", "121716.330000", "121717.335000", "121718.337500", "121719.342500", "121720.347500", "121721.350000", "121722.355000", "121723.360000", "121724.362500", "121725.367500", "121726.370000", "121727.375000", "121728.380000", "121729.382500", "121730.387500", "121731.390000", "121732.395000", "121733.400000", "121734.402500", "121735.407500", "121736.410000", "121737.415000", "121738.420000", "121739.422500", "121740.427500", "121741.430000", "121742.435000", "121743.440000", "121744.442500", "121745.447500", "121746.450000", "121747.455000", "121748.460000", "121749.462500", "121750.467500", "121751.470000", "121752.475000", "121753.480000", "121754.482500", "121755.487500", "121756.492500", "121757.495000", "121758.500000", "121759.502500", "121800.507500", "121801.512500", "121802.515000", "121803.520000", "121804.522500", "121805.527500", "121806.532500", "121807.535000", "121808.540000", "121809.542500", "121810.547500", "121811.552500", "121812.555000", "121813.560000", "121814.562500", "121815.567500", "121816.572500", "121817.575000", "121818.580000", "121819.582500", "121820.587500", "121821.592500", "121822.595000", "121823.600000", "121824.605000", "121825.607500", "121826.612500", "121827.615000", "121828.620000", "121829.625000", "121830.627500", "121831.632500", "121832.635000", "121833.640000", "121834.645000", "121835.647500", "121836.652500", "121837.655000", "121838.660000", "121839.665000", "121840.667500", "121841.672500", "121842.675000", "121843.680000", "121844.685000", "121845.687500"],
      "ContentTime": ["121346.312000", "121346.312000", "121346.328000", "121346.328000", "121346.328000", "121346.328000", "121346.328000", "121346.328000", "121346.328000", "121346.343000", "121346.343000", "121346.343000", "121346.343000", "121346.343000", "121346.343000", "121346.343000", "121346.359000", "121346.359000", "121346.359000", "121346.359000", "121346.359000", "121346.359000", "121346.359000", "121346.359000", "121346.375000", "121346.375000", "121346.375000", "121346.375000", "121346.375000", "121406.281000", "121406.281000", "121406.281000", "121406.281000", "121406.281000", "121406.296000", "121406.296000", "121406.296000", "121406.296000", "121406.296000", "121406.312000", "121406.312000", "121406.312000", "121406.312000", "121406.312000", "121406.312000", "121406.312000", "121406.328000", "121406.328000", "121406.328000", "121426.281000", "121426.281000", "121426.281000", "121426.281000", "121426.281000", "121426.281000", "121426.296000", "121426.296000", "121426.296000", "121426.296000", "121426.296000", "121426.296000", "121426.296000", "121426.312000", "121426.312000", "121426.312000", "121426.312000", "121426.312000", "121426.312000", "121426.312000", "121446.281000", "121446.281000", "121446.281000", "121446.281000", "121446.296000", "121446.296000", "121446.296000", "121446.296000", "121446.312000", "121446.312000", "121446.312000", "121446.312000", "121446.312000", "121446.312000", "121446.312000", "121446.328000", "121446.328000", "121446.328000", "121446.328000", "121446.328000", "121506.281000", "121506.281000", "121506.281000", "121506.281000", "121506.281000", "121506.281000", "121506.296000", "121506.296000", "121506.296000", "121506.296000", "121506.296000", "121506.296000", "121506.296000", "121506.312000", "121506.312000", "121506.312000", "121506.312000", "121506.312000", "121506.312000", "121506.328000", "121526.281000", "121526.281000", "121526.281000", "121526.281000", "121526.281000", "121526.281000", "121526.296000", "121526.296000", "121526.296000", "121526.296000", "121526.296000", "121526.296000", "121526.296000", "121526.312000", "121526.312000", "121526.312000", "121526.312000", "121526.312000", "121526.312000", "121526.312000", "121546.281000", "121546.281000", "121546.281000", "121546.281000", "121546.281000", "121546.281000", "121546.296000", "121546.296000", "121546.296000", "121546.296000", "121546.296000", "121546.296000", "121546.296000", "121546.312000", "121546.312000", "121546.312000", "121546.312000", "121546.312000", "121546.312000", "121546.312000", "121606.281000", "121606.281000", "121606.281000", "121606.281000", "121606.296000", "121606.296000", "121606.296000", "121606.296000", "121606.296000", "121606.296000", "121606.296000", "121606.296000", "121606.312000", "121606.312000", "121606.312000", "121606.312000", "121606.312000", "121606.312000", "121606.328000", "121606.328000", "121626.281000", "121626.281000", "121626.281000", "121626.281000", "121626.281000", "121626.281000", "121626.296000", "121626.296000", "121626.296000", "121626.296000", "121626.296000", "121626.296000", "121626.312000", "121626.312000", "121626.312000", "121626.312000", "121626.312000", "121626.312000", "121626.312000", "121626.312000", "121646.281000", "121646.281000", "121646.281000", "121646.281000", "121646.281000", "121646.281000", "121646.296000", "121646.296000", "121646.296000", "121646.296000", "121646.296000", "121646.296000", "121646.296000", "121646.312000", "121646.312000", "121646.312000", "121646.312000", "121646.312000", "121646.312000", "121646.328000", "121706.281000", "121706.281000", "121706.281000", "121706.281000", "121706.281000", "121706.296000", "121706.296000", "121706.296000", "121706.296000", "121706.296000", "121706.296000", "121706.296000", "121706.312000", "121706.312000", "121706.312000", "121706.312000", "121706.312000", "121706.312000", "121706.312000", "121706.328000", "121726.281000", "121726.281000", "121726.281000", "121726.281000", "121726.296000", "121726.296000", "121726.296000", "121726.296000", "121726.296000", "121726.312000", "121726.312000", "121726.312000", "121726.312000", "121726.312000", "121726.328000", "121726.328000", "121726.328000", "121726.328000", "121726.328000", "121726.328000", "121746.281000", "121746.281000", "121746.281000", "121746.281000", "121746.281000", "121746.296000", "121746.296000", "121746.296000", "121746.296000", "121746.296000", "121746.296000", "121746.296000", "121746.312000", "121746.312000", "121746.312000", "121746.312000", "121746.312000", "121746.312000", "121746.312000", "121746.328000", "121806.281000", "121806.281000", "121806.281000", "121806.281000", "121806.281000", "121806.296000", "121806.296000", "121806.296000", "121806.296000", "121806.296000", "121806.296000", "121806.296000", "121806.312000", "121806.312000", "121806.312000", "121806.312000", "121806.312000", "121806.312000", "121806.328000", "121806.328000", "121826.281000", "121826.281000", "121826.281000", "121826.281000", "121826.281000", "121826.281000", "121826.296000", "121826.296000", "121826.296000", "121826.296000", "121826.296000", "121826.296000", "121826.296000", "121826.312000", "121826.312000", "121826.312000", "121826.312000", "121826.312000", "121826.312000", "121826.312000", "121846.281000", "121846.281000", "121846.281000", "121846.296000", "121846.296000", "121846.296000", "121846.296000", "121846.296000", "121846.296000", "121846.312000", "121846.312000", "121846.312000", "121846.312000", "121846.312000", "121846.312000", "121846.312000", "121846.328000", "121846.328000", "121846.328000", "121846.328000", "121851.515000"],
      "InstanceCreationTime": ["121346.312000", "121346.312000", "121346.328000", "121346.328000", "121346.328000", "121346.328000", "121346.328000", "121346.328000", "121346.328000", "121346.343000", "121346.343000", "121346.343000", "121346.343000", "121346.343000", "121346.343000", "121346.343000", "121346.359000", "121346.359000", "121346.359000", "121346.359000", "121346.359000", "121346.359000", "121346.359000", "121346.359000", "121346.375000", "121346.375000", "121346.375000", "121346.375000", "121346.375000", "121406.281000", "121406.281000", "121406.281000", "121406.281000", "121406.281000", "121406.296000", "121406.296000", "121406.296000", "121406.296000", "121406.296000", "121406.312000", "121406.312000", "121406.312000", "121406.312000", "121406.312000", "121406.312000", "121406.312000", "121406.328000", "121406.328000", "121406.328000", "121426.281000", "121426.281000", "121426.281000", "121426.281000", "121426.281000", "121426.281000", "121426.296000", "121426.296000", "121426.296000", "121426.296000", "121426.296000", "121426.296000", "121426.296000", "121426.312000", "121426.312000", "121426.312000", "121426.312000", "121426.312000", "121426.312000", "121426.312000", "121446.281000", "121446.281000", "121446.281000", "121446.281000", "121446.296000", "121446.296000", "121446.296000", "121446.296000", "121446.312000", "121446.312000", "121446.312000", "121446.312000", "121446.312000", "121446.312000", "121446.312000", "121446.328000", "121446.328000", "121446.328000", "121446.328000", "121446.328000", "121506.281000", "121506.281000", "121506.281000", "121506.281000", "121506.281000", "121506.281000", "121506.296000", "121506.296000", "121506.296000", "121506.296000", "121506.296000", "121506.296000", "121506.296000", "121506.312000", "121506.312000", "121506.312000", "121506.312000", "121506.312000", "121506.312000", "121506.328000", "121526.281000", "121526.281000", "121526.281000", "121526.281000", "121526.281000", "121526.281000", "121526.296000", "121526.296000", "121526.296000", "121526.296000", "121526.296000", "121526.296000", "121526.296000", "121526.312000", "121526.312000", "121526.312000", "121526.312000", "121526.312000", "121526.312000", "121526.312000", "121546.281000", "121546.281000", "121546.281000", "121546.281000", "121546.281000", "121546.281000", "121546.296000", "121546.296000", "121546.296000", "121546.296000", "121546.296000", "121546.296000", "121546.296000", "121546.312000", "121546.312000", "121546.312000", "121546.312000", "121546.312000", "121546.312000", "121546.312000", "121606.281000", "121606.281000", "121606.281000", "121606.281000", "121606.296000", "121606.296000", "121606.296000", "121606.296000", "121606.296000", "121606.296000", "121606.296000", "121606.296000", "121606.312000", "121606.312000", "121606.312000", "121606.312000", "121606.312000", "121606.312000", "121606.328000", "121606.328000", "121626.281000", "121626.281000", "121626.281000", "121626.281000", "121626.281000", "121626.281000", "121626.296000", "121626.296000", "121626.296000", "121626.296000", "121626.296000", "121626.296000", "121626.312000", "121626.312000", "121626.312000", "121626.312000", "121626.312000", "121626.312000", "121626.312000", "121626.312000", "121646.281000", "121646.281000", "121646.281000", "121646.281000", "121646.281000", "121646.281000", "121646.296000", "121646.296000", "121646.296000", "121646.296000", "121646.296000", "121646.296000", "121646.296000", "121646.312000", "121646.312000", "121646.312000", "121646.312000", "121646.312000", "121646.312000", "121646.328000", "121706.281000", "121706.281000", "121706.281000", "121706.281000", "121706.281000", "121706.296000", "121706.296000", "121706.296000", "121706.296000", "121706.296000", "121706.296000", "121706.296000", "121706.312000", "121706.312000", "121706.312000", "121706.312000", "121706.312000", "121706.312000", "121706.312000", "121706.328000", "121726.281000", "121726.281000", "121726.281000", "121726.281000", "121726.296000", "121726.296000", "121726.296000", "121726.296000", "121726.296000", "121726.312000", "121726.312000", "121726.312000", "121726.312000", "121726.312000", "121726.328000", "121726.328000", "121726.328000", "121726.328000", "121726.328000", "121726.328000", "121746.281000", "121746.281000", "121746.281000", "121746.281000", "121746.281000", "121746.296000", "121746.296000", "121746.296000", "121746.296000", "121746.296000", "121746.296000", "121746.296000", "121746.312000", "121746.312000", "121746.312000", "121746.312000", "121746.312000", "121746.312000", "121746.312000", "121746.328000", "121806.281000", "121806.281000", "121806.281000", "121806.281000", "121806.281000", "121806.296000", "121806.296000", "121806.296000", "121806.296000", "121806.296000", "121806.296000", "121806.296000", "121806.312000", "121806.312000", "121806.312000", "121806.312000", "121806.312000", "121806.312000", "121806.328000", "121806.328000", "121826.281000", "121826.281000", "121826.281000", "121826.281000", "121826.281000", "121826.281000", "121826.296000", "121826.296000", "121826.296000", "121826.296000", "121826.296000", "121826.296000", "121826.296000", "121826.312000", "121826.312000", "121826.312000", "121826.312000", "121826.312000", "121826.312000", "121826.312000", "121846.281000", "121846.281000", "121846.281000", "121846.296000", "121846.296000", "121846.296000", "121846.296000", "121846.296000", "121846.296000", "121846.312000", "121846.312000", "121846.312000", "121846.312000", "121846.312000", "121846.312000", "121846.312000", "121846.328000", "121846.328000", "121846.328000", "121846.328000", "121851.515000"],
      "InstanceNumber": [1, 2, 3, 4, 5, 6, 7, 8, 9, 10, 11, 12, 13, 14, 15, 16, 17, 18, 19, 20, 21, 22, 23, 24, 25, 26, 27, 28, 29, 30, 31, 32, 33, 34, 35, 36, 37, 38, 39, 40, 41, 42, 43, 44, 45, 46, 47, 48, 49, 50, 51, 52, 53, 54, 55, 56, 57, 58, 59, 60, 61, 62, 63, 64, 65, 66, 67, 68, 69, 70, 71, 72, 73, 74, 75, 76, 77, 78, 79, 80, 81, 82, 83, 84, 85, 86, 87, 88, 89, 90, 91, 92, 93, 94, 95, 96, 97, 98, 99, 100, 101, 102, 103, 104, 105, 106, 107, 108, 109, 110, 111, 112, 113, 114, 115, 116, 117, 118, 119, 120, 121, 122, 123, 124, 125, 126, 127, 128, 129, 130, 131, 132, 133, 134, 135, 136, 137, 138, 139, 140, 141, 142, 143, 144, 145, 146, 147, 148, 149, 150, 151, 152, 153, 154, 155, 156, 157, 158, 159, 160, 161, 162, 163, 164, 165, 166, 167, 168, 169, 170, 171, 172, 173, 174, 175, 176, 177, 178, 179, 180, 181, 182, 183, 184, 185, 186, 187, 188, 189, 190, 191, 192, 193, 194, 195, 196, 197, 198, 199, 200, 201, 202, 203, 204, 205, 206, 207, 208, 209, 210, 211, 212, 213, 214, 215, 216, 217, 218, 219, 220, 221, 222, 223, 224, 225, 226, 227, 228, 229, 230, 231, 232, 233, 234, 235, 236, 237, 238, 239, 240, 241, 242, 243, 244, 245, 246, 247, 248, 249, 250, 251, 252, 253, 254, 255, 256, 257, 258, 259, 260, 261, 262, 263, 264, 265, 266, 267, 268, 269, 270, 271, 272, 273, 274, 275, 276, 277, 278, 279, 280, 281, 282, 283, 284, 285, 286, 287, 288, 289, 290, 291, 292, 293, 294, 295, 296, 297, 298, 299, 300, 301, 302, 303, 304, 305, 306, 307, 308, 309, 310, 311, 312, 313, 314, 315, 316, 317, 318, 319, 320, 321, 322, 323, 324, 325, 326, 327, 328, 329, 330],
      "LargestImagePixelValue": [1824, 1792, 1785, 1774, 1747, 1734, 1762, 1731, 1739, 1774, 1770, 1727, 1716, 1738, 1764, 1751, 1710, 1758, 1763, 1757, 1754, 1763, 1742, 1742, 1746, 1752, 1742, 1715, 1755, 1772, 1769, 1778, 1752, 1730, 1767, 1769, 1740, 1740, 1742, 1791, 1771, 1699, 1758, 1782, 1731, 1727, 1793, 1738, 1754, 1765, 1768, 1729, 1773, 1762, 1718, 1749, 1736, 1728, 1737, 1749, 1772, 1783, 1780, 1763, 1766, 1776, 1741, 1749, 1770, 1757, 1736, 1712, 1682, 1731, 1774, 1696, 1728, 1730, 1712, 1766, 1766, 1699, 1678, 1719, 1732, 1729, 1697, 1702, 1736, 1746, 1737, 1738, 1736, 1683, 1718, 1664, 1676, 1689, 1688, 1736, 1671, 1667, 1700, 1699, 1694, 1725, 1677, 1673, 1712, 1702, 1747, 1696, 1661, 1672, 1693, 1742, 1691, 1686, 1736, 1682, 1713, 1696, 1676, 1701, 1680, 1721, 1674, 1679, 1703, 1692, 1682, 1670, 1684, 1694, 1705, 1696, 1657, 1669, 1657, 1731, 1710, 1680, 1707, 1666, 1731, 1676, 1710, 1734, 1652, 1694, 1702, 1671, 1678, 1736, 1711, 1723, 1680, 1653, 1705, 1707, 1731, 1657, 1653, 1733, 1678, 1691, 1717, 1670, 1700, 1672, 1674, 1745, 1686, 1683, 1684, 1710, 1746, 1725, 1709, 1680, 1714, 1701, 1668, 1675, 1698, 1736, 1657, 1722, 1685, 1721, 1753, 1688, 1704, 1709, 1661, 1699, 1661, 1697, 1711, 1670, 1713, 1662, 1672, 1721, 1690, 1698, 1700, 1654, 1675, 1726, 1666, 1681, 1689, 1656, 1716, 1680, 1695, 1700, 1696, 1688, 1712, 1711, 1702, 1661, 1684, 1710, 1703, 1670, 1728, 1679, 1728, 1686, 1684, 1727, 1672, 1710, 1714, 1705, 1705, 1732, 1683, 1668, 1654, 1675, 1679, 1691, 1653, 1696, 1675, 1673, 1690, 1672, 1698, 1694, 1763, 1743, 1688, 1708, 1706, 1692, 1734, 1695, 1698, 1741, 1701, 1709, 1707, 1685, 1707, 1696, 1669, 1659, 1680, 1722, 1668, 1708, 1649, 1665, 1664, 1653, 1707, 1640, 1654, 1649, 1651, 1679, 1641, 1677, 1698, 1696, 1703, 1661, 1653, 1673, 1668, 1646, 1709, 1644, 1706, 1689, 1703, 1722, 1663, 1641, 1713, 1663, 1642, 1672, 1656, 1660, 1696, 1675, 1666, 1699, 1688, 1649, 1666, 1655, 1665, 1669, 1652, 1704, 1674, 1687, 1688, 1662, 1691, 1657, 1661, 1724],
      "WindowCenter": [385.0, 385.0, 384.0, 384.0, 384.0, 383.0, 383.0, 383.0, 384.0, 383.0, 384.0, 383.0, 383.0, 384.0, 385.0, 384.0, 383.0, 385.0, 385.0, 386.0, 386.0, 386.0, 385.0, 385.0, 385.0, 385.0, 386.0, 387.0, 387.0, 388.0, 387.0, 387.0, 386.0, 386.0, 385.0, 386.0, 386.0, 386.0, 387.0, 387.0, 387.0, 385.0, 386.0, 385.0, 385.0, 384.0, 384.0, 384.0, 385.0, 385.0, 385.0, 385.0, 385.0, 385.0, 386.0, 386.0, 386.0, 386.0, 386.0, 386.0, 386.0, 386.0, 386.0, 386.0, 385.0, 384.0, 384.0, 384.0, 384.0, 385.0, 383.0, 384.0, 385.0, 384.0, 383.0, 383.0, 384.0, 384.0, 385.0, 385.0, 385.0, 385.0, 385.0, 385.0, 386.0, 386.0, 386.0, 386.0, 386.0, 386.0, 385.0, 384.0, 385.0, 384.0, 384.0, 385.0, 386.0, 387.0, 387.0, 387.0, 386.0, 384.0, 383.0, 383.0, 383.0, 384.0, 385.0, 385.0, 386.0, 384.0, 384.0, 383.0, 383.0, 383.0, 384.0, 385.0, 385.0, 386.0, 385.0, 384.0, 384.0, 384.0, 385.0, 386.0, 386.0, 386.0, 384.0, 384.0, 384.0, 384.0, 384.0, 384.0, 385.0, 385.0, 384.0, 385.0, 384.0, 385.0, 386.0, 386.0, 387.0, 386.0, 385.0, 385.0, 384.0, 384.0, 384.0, 384.0, 384.0, 386.0, 386.0, 385.0, 386.0, 386.0, 384.0, 384.0, 384.0, 384.0, 385.0, 385.0, 385.0, 384.0, 384.0, 384.0, 384.0, 384.0, 384.0, 384.0, 386.0, 387.0, 387.0, 388.0, 387.0, 385.0, 385.0, 385.0, 385.0, 386.0, 387.0, 387.0, 386.0, 384.0, 384.0, 384.0, 384.0, 384.0, 384.0, 384.0, 384.0, 384.0, 384.0, 384.0, 383.0, 383.0, 384.0, 385.0, 386.0, 387.0, 386.0, 386.0, 386.0, 385.0, 385.0, 385.0, 386.0, 386.0, 385.0, 385.0, 386.0, 385.0, 384.0, 383.0, 383.0, 384.0, 385.0, 386.0, 386.0, 385.0, 386.0, 385.0, 384.0, 384.0, 384.0, 384.0, 385.0, 384.0, 384.0, 385.0, 387.0, 387.0, 387.0, 386.0, 386.0, 386.0, 385.0, 385.0, 386.0, 386.0, 385.0, 385.0, 384.0, 384.0, 384.0, 383.0, 383.0, 384.0, 384.0, 386.0, 386.0, 386.0, 385.0, 385.0, 386.0, 387.0, 387.0, 387.0, 386.0, 386.0, 387.0, 387.0, 387.0, 387.0, 387.0, 387.0, 387.0, 387.0, 386.0, 385.0, 385.0, 385.0, 385.0, 387.0, 387.0, 387.0, 387.0, 387.0, 386.0, 385.0, 385.0, 385.0, 385.0, 385.0, 384.0, 384.0, 384.0, 385.0, 385.0, 386.0, 386.0, 386.0, 386.0, 385.0, 385.0, 385.0, 385.0, 384.0, 384.0, 384.0, 386.0, 387.0, 387.0, 386.0, 385.0, 385.0, 385.0, 384.0, 384.0, 384.0, 384.0, 385.0, 386.0, 386.0, 385.0, 386.0, 385.0, 384.0, 385.0, 385.0, 386.0, 387.0, 387.0, 387.0, 386.0, 385.0, 385.0, 385.0, 385.0, 385.0, 385.0, 384.0],
