{
  "AcquisitionMatrixPE": 104,
  "AcquisitionNumber": 1,
  "AcquisitionTime": "11:33:14.210000",
  "BandwidthPerPixelPhaseEncode": 43.054,
  "BaseResolution": 104,
  "CoilString": "C:E1_2",
  "ConversionSoftware": "dcm2niix",
  "ConversionSoftwareVersion": "v1.0.20191031",
  "DerivedVendorReportedEchoSpacing": 0.000669999,
  "DeviceSerialNumber": "18932",
  "DwellTime": 2.8e-06,
  "EchoTime": 0.02,
  "EffectiveEchoSpacing": 0.000223333,
  "FlipAngle": 30,
  "ImageComments": "Unaliased_MB2_PE2",
  "ImageOrientationPatientDICOM": [1, 0, 0, 0, 0.997916, -0.0645323],
  "ImageType": [
    "ORIGINAL",
    "PRIMARY",
    "M",
    "MB",
    "ND",
    "MOSAIC"
],
  "ImagingFrequency": 297.229,
  "InPlanePhaseEncodingDirectionDICOM": "COL",
  "InstitutionAddress": "Richmond_Street_North_1151_London_409EF2_Ontario_CA_N6A_5B7",
  "InstitutionName": "Robarts_Reserch_Institute",
  "InstitutionalDepartmentName": "Department",
  "MRAcquisitionType": "2D",
  "MagneticFieldStrength": 6.98,
  "Manufacturer": "Siemens",
  "ManufacturersModelName": "Investigational_Device_7T",
  "Modality": "MR",
  "MultibandAccelerationFactor": 2,
  "ParallelReductionFactorInPlane": 3,
  "PartialFourier": 0.875,
  "PatientPosition": "HFS",
  "PercentPhaseFOV": 100,
  "PhaseEncodingDirection": "j-",
  "PhaseEncodingSteps": 91,
  "PhaseResolution": 1,
  "PixelBandwidth": 1717,
  "ProcedureStepDescription": "Diedrichsen_SeqRep4",
  "ProtocolName": "mbep2d_bold_mb2_p3_AP_2iso",
  "PulseSequenceDetails": "%CustomerSeq%_cmrr_mbep2d_bold",
  "ReceiveCoilName": "CFMM_8Tx32Rx",
  "ReconMatrixPE": 104,
  "RefLinesPE": 36,
  "RepetitionTime": 1,
  "ScanOptions": "PFP_FS",
  "ScanningSequence": "EP",
  "SequenceName": "epfid2d1_104",
  "SequenceVariant": "SK_SS",
  "SeriesDescription": "mbep2d_bold_mb2_p3_AP_2iso",
  "SeriesNumber": 17,
  "ShimSetting": [21, 2025, 112, 1527, 162, 139, 116, -169],
  "SliceThickness": 2,
  "SliceTiming": [0, 0.2275, 0.4575, 0.685, 0.9125, 0.1375, 0.365, 0.5925, 0.8225, 0.045, 0.275, 0.5025, 0.73, 0.9575, 0.1825, 0.41, 0.64, 0.8675, 0.0925, 0.32, 0.5475, 0.775, 0, 0.2275, 0.4575, 0.685, 0.9125, 0.1375, 0.365, 0.5925, 0.8225, 0.045, 0.275, 0.5025, 0.73, 0.9575, 0.1825, 0.41, 0.64, 0.8675, 0.0925, 0.32, 0.5475, 0.775],
  "SoftwareVersions": "syngo_MR_B17",
  "SpacingBetweenSlices": 2,
  "StationName": "MASTER",
  "TaskName": "dsp",
  "TotalReadoutTime": 0.0230033,
  "TxRefAmp": 120,
  "dcmmeta_affine": [
    [-2.0, 0.0, 0.0, 110.53752899169922],
    [0.0, 1.9958312511444092, -0.12906460464000702, -93.92992401123047],
    [0.0, 0.1290646195411682, 1.9958311319351196, -24.118383407592773],
    [0.0, 0.0, 0.0, 1.0]
],
  "dcmmeta_reorient_transform": [
    [0.0, -1.0, 0.0, 103.0],
    [1.0, 0.0, 0.0, 0.0],
    [0.0, 0.0, 1.0, 0.0],
    [0.0, 0.0, 0.0, 1.0]
],
  "dcmmeta_shape": [104, 104, 44, 330],
  "dcmmeta_slice_dim": 2,
  "dcmmeta_version": 0.6,
  "global": {
    "const": {
      "AcquisitionMatrix": [104, 0, 0, 104],
      "AngioFlag": "N",
      "BitsAllocated": 16,
      "BitsStored": 12,
      "Columns": 728,
      "EchoNumbers": 1,
      "EchoTime": 20.0,
      "EchoTrainLength": 1,
      "FlipAngle": 30.0,
      "HighBit": 11,
      "ImageOrientationPatient": [1.0, 0.0, 0.0, 0.0, 0.99791561827596, -0.0645323081945],
      "ImagePositionPatient": [-734.53753042221, -734.34003680259, 29.443433329455],
      "ImageType": [
        "ORIGINAL",
        "PRIMARY",
        "M",
        "MB",
        "ND",
        "MOSAIC"
],
      "ImagedNucleus": "1H",
      "ImagingFrequency": 297.22894,
      "InPlanePhaseEncodingDirection": "COL",
      "MRAcquisitionType": "2D",
      "MagneticFieldStrength": 6.98,
      "Manufacturer": "SIEMENS",
      "ManufacturerModelName": "Investigational_Device_7T",
      "Modality": "MR",
      "NumberOfAverages": 1.0,
      "NumberOfPhaseEncodingSteps": 91,
      "PercentPhaseFieldOfView": 100.0,
      "PercentSampling": 100.0,
      "PerformedProcedureStepStartTime": "110323.750000",
      "PhotometricInterpretation": "MONOCHROME2",
      "PixelBandwidth": 1717.0,
      "PixelRepresentation": 0,
      "PixelSpacing": [2.0, 2.0],
      "ProtocolName": "mbep2d_bold_mb2_p3_AP 2iso",
      "RepetitionTime": 1000.0,
      "Rows": 728,
      "SAR": 0.0,
      "SamplesPerPixel": 1,
      "ScanOptions": [
        "PFP",
        "FS"
],
      "ScanningSequence": "EP",
      "SequenceName": "epfid2d1_104",
      "SequenceVariant": [
        "SK",
        "SS"
],
      "SeriesDescription": "mbep2d_bold_mb2_p3_AP 2iso",
      "SeriesNumber": 17,
      "SeriesTime": "113356.031000",
      "SliceLocation": -18.006595599367,
      "SliceThickness": 2.0,
      "SmallestImagePixelValue": 0,
      "SoftwareVersions": "syngo MR B17",
      "SpacingBetweenSlices": 1.9999999200773,
      "SpecificCharacterSet": "ISO_IR 100",
      "StudyID": "1",
      "StudyTime": "110323.687000",
      "TransmitCoilName": "CFMM_8Tx32Rx",
      "VariableFlipAngleFlag": "N",
      "WindowCenterWidthExplanation": "Algo1",
      "dBdt": 0.0},
    "slices": {}
  },
  "time": {
    "samples": {
      "AcquisitionNumber": [1, 2, 3, 4, 5, 6, 7, 8, 9, 10, 11, 12, 13, 14, 15, 16, 17, 18, 19, 20, 21, 22, 23, 24, 25, 26, 27, 28, 29, 30, 31, 32, 33, 34, 35, 36, 37, 38, 39, 40, 41, 42, 43, 44, 45, 46, 47, 48, 49, 50, 51, 52, 53, 54, 55, 56, 57, 58, 59, 60, 61, 62, 63, 64, 65, 66, 67, 68, 69, 70, 71, 72, 73, 74, 75, 76, 77, 78, 79, 80, 81, 82, 83, 84, 85, 86, 87, 88, 89, 90, 91, 92, 93, 94, 95, 96, 97, 98, 99, 100, 101, 102, 103, 104, 105, 106, 107, 108, 109, 110, 111, 112, 113, 114, 115, 116, 117, 118, 119, 120, 121, 122, 123, 124, 125, 126, 127, 128, 129, 130, 131, 132, 133, 134, 135, 136, 137, 138, 139, 140, 141, 142, 143, 144, 145, 146, 147, 148, 149, 150, 151, 152, 153, 154, 155, 156, 157, 158, 159, 160, 161, 162, 163, 164, 165, 166, 167, 168, 169, 170, 171, 172, 173, 174, 175, 176, 177, 178, 179, 180, 181, 182, 183, 184, 185, 186, 187, 188, 189, 190, 191, 192, 193, 194, 195, 196, 197, 198, 199, 200, 201, 202, 203, 204, 205, 206, 207, 208, 209, 210, 211, 212, 213, 214, 215, 216, 217, 218, 219, 220, 221, 222, 223, 224, 225, 226, 227, 228, 229, 230, 231, 232, 233, 234, 235, 236, 237, 238, 239, 240, 241, 242, 243, 244, 245, 246, 247, 248, 249, 250, 251, 252, 253, 254, 255, 256, 257, 258, 259, 260, 261, 262, 263, 264, 265, 266, 267, 268, 269, 270, 271, 272, 273, 274, 275, 276, 277, 278, 279, 280, 281, 282, 283, 284, 285, 286, 287, 288, 289, 290, 291, 292, 293, 294, 295, 296, 297, 298, 299, 300, 301, 302, 303, 304, 305, 306, 307, 308, 309, 310, 311, 312, 313, 314, 315, 316, 317, 318, 319, 320, 321, 322, 323, 324, 325, 326, 327, 328, 329, 330],
      "AcquisitionTime": ["113314.210000", "113315.215000", "113316.217500", "113317.222500", "113318.227500", "113319.230000", "113320.235000", "113321.237500", "113322.242500", "113323.247500", "113324.250000", "113325.255000", "113326.257500", "113327.262500", "113328.267500", "113329.270000", "113330.275000", "113331.280000", "113332.282500", "113333.287500", "113334.290000", "113335.295000", "113336.300000", "113337.302500", "113338.307500", "113339.310000", "113340.315000", "113341.320000", "113342.322500", "113343.327500", "113344.330000", "113345.335000", "113346.340000", "113347.342500", "113348.347500", "113349.350000", "113350.355000", "113351.360000", "113352.362500", "113353.367500", "113354.370000", "113355.375000", "113356.380000", "113357.382500", "113358.387500", "113359.392500", "113400.395000", "113401.400000", "113402.402500", "113403.407500", "113404.412500", "113405.415000", "113406.420000", "113407.422500", "113408.427500", "113409.432500", "113410.435000", "113411.440000", "113412.442500", "113413.447500", "113414.452500", "113415.455000", "113416.460000", "113417.462500", "113418.467500", "113419.472500", "113420.475000", "113421.480000", "113422.482500", "113423.487500", "113424.492500", "113425.495000", "113426.500000", "113427.502500", "113428.507500", "113429.512500", "113430.515000", "113431.520000", "113432.525000", "113433.527500", "113434.532500", "113435.535000", "113436.540000", "113437.545000", "113438.547500", "113439.552500", "113440.555000", "113441.560000", "113442.565000", "113443.567500", "113444.572500", "113445.575000", "113446.580000", "113447.585000", "113448.587500", "113449.592500", "113450.595000", "113451.600000", "113452.605000", "113453.607500", "113454.612500", "113455.615000", "113456.620000", "113457.625000", "113458.627500", "113459.632500", "113500.635000", "113501.640000", "113502.645000", "113503.647500", "113504.652500", "113505.657500", "113506.660000", "113507.665000", "113508.667500", "113509.672500", "113510.677500", "113511.680000", "113512.685000", "113513.687500", "113514.692500", "113515.697500", "113516.700000", "113517.705000", "113518.707500", "113519.712500", "113520.717500", "113521.720000", "113522.725000", "113523.727500", "113524.732500", "113525.737500", "113526.740000", "113527.745000", "113528.747500", "113529.752500", "113530.757500", "113531.760000", "113532.765000", "113533.770000", "113534.772500", "113535.777500", "113536.780000", "113537.785000", "113538.790000", "113539.792500", "113540.797500", "113541.800000", "113542.805000", "113543.810000", "113544.812500", "113545.817500", "113546.820000", "113547.825000", "113548.830000", "113549.832500", "113550.837500", "113551.840000", "113552.845000", "113553.850000", "113554.852500", "113555.857500", "113556.860000", "113557.865000", "113558.870000", "113559.872500", "113600.877500", "113601.880000", "113602.885000", "113603.890000", "113604.892500", "113605.897500", "113606.902500", "113607.905000", "113608.910000", "113609.912500", "113610.917500", "113611.922500", "113612.925000", "113613.930000", "113614.932500", "113615.937500", "113616.942500", "113617.945000", "113618.950000", "113619.952500", "113620.957500", "113621.962500", "113622.965000", "113623.970000", "113624.972500", "113625.977500", "113626.982500", "113627.985000", "113628.990000", "113629.992500", "113630.997500", "113632.002500", "113633.005000", "113634.010000", "113635.015000", "113636.017500", "113637.022500", "113638.025000", "113639.030000", "113640.035000", "113641.037500", "113642.042500", "113643.045000", "113644.050000", "113645.055000", "113646.057500", "113647.062500", "113648.065000", "113649.070000", "113650.075000", "113651.077500", "113652.082500", "113653.085000", "113654.090000", "113655.095000", "113656.097500", "113657.102500", "113658.105000", "113659.110000", "113700.115000", "113701.117500", "113702.122500", "113703.125000", "113704.130000", "113705.135000", "113706.137500", "113707.142500", "113708.147500", "113709.150000", "113710.155000", "113711.157500", "113712.162500", "113713.167500", "113714.170000", "113715.175000", "113716.177500", "113717.182500", "113718.187500", "113719.190000", "113720.195000", "113721.197500", "113722.202500", "113723.207500", "113724.210000", "113725.215000", "113726.217500", "113727.222500", "113728.227500", "113729.230000", "113730.235000", "113731.237500", "113732.242500", "113733.247500", "113734.250000", "113735.255000", "113736.257500", "113737.262500", "113738.267500", "113739.270000", "113740.275000", "113741.280000", "113742.282500", "113743.287500", "113744.290000", "113745.295000", "113746.300000", "113747.302500", "113748.307500", "113749.310000", "113750.315000", "113751.320000", "113752.322500", "113753.327500", "113754.330000", "113755.335000", "113756.340000", "113757.342500", "113758.347500", "113759.350000", "113800.355000", "113801.360000", "113802.362500", "113803.367500", "113804.370000", "113805.375000", "113806.380000", "113807.382500", "113808.387500", "113809.392500", "113810.395000", "113811.400000", "113812.402500", "113813.407500", "113814.412500", "113815.415000", "113816.420000", "113817.422500", "113818.427500", "113819.432500", "113820.435000", "113821.440000", "113822.442500", "113823.447500", "113824.452500", "113825.455000", "113826.460000", "113827.462500", "113828.467500", "113829.472500", "113830.475000", "113831.480000", "113832.482500", "113833.487500", "113834.492500", "113835.495000", "113836.500000", "113837.502500", "113838.507500", "113839.512500", "113840.515000", "113841.520000", "113842.525000", "113843.527500", "113844.532500"],
      "ContentTime": ["113356.031000", "113356.031000", "113356.031000", "113356.031000", "113356.046000", "113356.046000", "113356.046000", "113356.046000", "113356.046000", "113356.046000", "113356.046000", "113356.046000", "113356.062000", "113356.062000", "113356.062000", "113356.062000", "113356.062000", "113356.062000", "113356.078000", "113356.078000", "113356.078000", "113356.078000", "113356.078000", "113356.093000", "113356.093000", "113356.093000", "113356.093000", "113356.093000", "113356.093000", "113356.093000", "113356.109000", "113356.109000", "113356.109000", "113356.109000", "113356.109000", "113356.109000", "113356.109000", "113356.125000", "113356.125000", "113416.000000", "113416.000000", "113416.000000", "113416.000000", "113416.000000", "113416.015000", "113416.015000", "113416.015000", "113416.015000", "113416.015000", "113416.015000", "113416.015000", "113416.015000", "113416.031000", "113416.031000", "113416.031000", "113416.031000", "113416.031000", "113416.031000", "113416.031000", "113436.000000", "113436.000000", "113436.000000", "113436.000000", "113436.000000", "113436.015000", "113436.015000", "113436.015000", "113436.015000", "113436.015000", "113436.015000", "113436.015000", "113436.031000", "113436.031000", "113436.031000", "113436.031000", "113436.031000", "113436.031000", "113436.031000", "113436.046000", "113436.046000", "113516.000000", "113516.000000", "113516.000000", "113516.015000", "113516.015000", "113516.015000", "113516.015000", "113516.015000", "113516.031000", "113516.031000", "113516.031000", "113516.031000", "113516.031000", "113516.031000", "113516.046000", "113516.046000", "113516.046000", "113516.046000", "113516.046000", "113516.062000", "113516.062000", "113516.062000", "113516.062000", "113516.062000", "113516.078000", "113516.078000", "113516.078000", "113516.078000", "113516.078000", "113516.078000", "113516.078000", "113516.093000", "113516.093000", "113516.093000", "113516.093000", "113516.093000", "113516.093000", "113516.093000", "113516.109000", "113536.000000", "113536.000000", "113536.000000", "113536.000000", "113536.000000", "113536.015000", "113536.015000", "113536.015000", "113536.015000", "113536.015000", "113536.015000", "113536.015000", "113536.031000", "113536.031000", "113536.031000", "113536.031000", "113536.031000", "113536.031000", "113536.031000", "113536.031000", "113556.000000", "113556.000000", "113556.000000", "113556.015000", "113556.015000", "113556.015000", "113556.015000", "113556.015000", "113556.031000", "113556.031000", "113556.031000", "113556.031000", "113556.031000", "113556.031000", "113556.031000", "113556.031000", "113556.046000", "113556.046000", "113556.046000", "113556.046000", "113616.000000", "113616.000000", "113616.000000", "113616.000000", "113616.015000", "113616.015000", "113616.015000", "113616.015000", "113616.015000", "113616.031000", "113616.031000", "113616.031000", "113616.031000", "113616.031000", "113616.031000", "113616.031000", "113616.046000", "113616.046000", "113616.046000", "113616.046000", "113636.000000", "113636.000000", "113636.000000", "113636.000000", "113636.000000", "113636.015000", "113636.015000", "113636.015000", "113636.015000", "113636.015000", "113636.031000", "113636.031000", "113636.031000", "113636.031000", "113636.031000", "113636.031000", "113636.031000", "113636.046000", "113636.046000", "113636.046000", "113656.000000", "113656.000000", "113656.000000", "113656.000000", "113656.000000", "113656.015000", "113656.015000", "113656.015000", "113656.015000", "113656.015000", "113656.015000", "113656.031000", "113656.031000", "113656.031000", "113656.031000", "113656.031000", "113656.031000", "113656.031000", "113656.031000", "113656.046000", "113716.000000", "113716.000000", "113716.000000", "113716.000000", "113716.000000", "113716.015000", "113716.015000", "113716.015000", "113716.015000", "113716.015000", "113716.015000", "113716.015000", "113716.031000", "113716.031000", "113716.031000", "113716.031000", "113716.031000", "113716.031000", "113716.046000", "113716.046000", "113736.000000", "113736.000000", "113736.000000", "113736.000000", "113736.000000", "113736.015000", "113736.015000", "113736.015000", "113736.015000", "113736.015000", "113736.015000", "113736.015000", "113736.031000", "113736.031000", "113736.031000", "113736.031000", "113736.031000", "113736.031000", "113736.031000", "113736.031000", "113756.000000", "113756.000000", "113756.000000", "113756.000000", "113756.000000", "113756.015000", "113756.015000", "113756.015000", "113756.015000", "113756.015000", "113756.015000", "113756.015000", "113756.031000", "113756.031000", "113756.031000", "113756.031000", "113756.031000", "113756.031000", "113756.031000", "113756.031000", "113816.000000", "113816.000000", "113816.000000", "113816.000000", "113816.000000", "113816.015000", "113816.015000", "113816.015000", "113816.015000", "113816.031000", "113816.031000", "113816.031000", "113816.031000", "113816.031000", "113816.031000", "113816.031000", "113816.046000", "113816.046000", "113816.046000", "113816.046000", "113836.000000", "113836.000000", "113836.000000", "113836.000000", "113836.015000", "113836.015000", "113836.015000", "113836.015000", "113836.031000", "113836.031000", "113836.031000", "113836.031000", "113836.031000", "113836.031000", "113836.031000", "113836.046000", "113836.046000", "113836.046000", "113836.046000", "113836.046000", "113851.015000", "113851.015000", "113851.015000", "113851.015000", "113851.015000", "113851.015000", "113851.015000", "113851.031000", "113851.031000", "113851.031000", "113851.031000"],
      "InstanceCreationTime": ["113356.031000", "113356.031000", "113356.031000", "113356.031000", "113356.046000", "113356.046000", "113356.046000", "113356.046000", "113356.046000", "113356.046000", "113356.046000", "113356.046000", "113356.062000", "113356.062000", "113356.062000", "113356.062000", "113356.062000", "113356.062000", "113356.078000", "113356.078000", "113356.078000", "113356.078000", "113356.078000", "113356.093000", "113356.093000", "113356.093000", "113356.093000", "113356.093000", "113356.093000", "113356.093000", "113356.109000", "113356.109000", "113356.109000", "113356.109000", "113356.109000", "113356.109000", "113356.109000", "113356.125000", "113356.125000", "113416.000000", "113416.000000", "113416.000000", "113416.000000", "113416.000000", "113416.015000", "113416.015000", "113416.015000", "113416.015000", "113416.015000", "113416.015000", "113416.015000", "113416.015000", "113416.031000", "113416.031000", "113416.031000", "113416.031000", "113416.031000", "113416.031000", "113416.031000", "113436.000000", "113436.000000", "113436.000000", "113436.000000", "113436.000000", "113436.015000", "113436.015000", "113436.015000", "113436.015000", "113436.015000", "113436.015000", "113436.015000", "113436.031000", "113436.031000", "113436.031000", "113436.031000", "113436.031000", "113436.031000", "113436.031000", "113436.046000", "113436.046000", "113516.000000", "113516.000000", "113516.000000", "113516.015000", "113516.015000", "113516.015000", "113516.015000", "113516.015000", "113516.031000", "113516.031000", "113516.031000", "113516.031000", "113516.031000", "113516.031000", "113516.046000", "113516.046000", "113516.046000", "113516.046000", "113516.046000", "113516.062000", "113516.062000", "113516.062000", "113516.062000", "113516.062000", "113516.078000", "113516.078000", "113516.078000", "113516.078000", "113516.078000", "113516.078000", "113516.078000", "113516.093000", "113516.093000", "113516.093000", "113516.093000", "113516.093000", "113516.093000", "113516.093000", "113516.109000", "113536.000000", "113536.000000", "113536.000000", "113536.000000", "113536.000000", "113536.015000", "113536.015000", "113536.015000", "113536.015000", "113536.015000", "113536.015000", "113536.015000", "113536.031000", "113536.031000", "113536.031000", "113536.031000", "113536.031000", "113536.031000", "113536.031000", "113536.031000", "113556.000000", "113556.000000", "113556.000000", "113556.015000", "113556.015000", "113556.015000", "113556.015000", "113556.015000", "113556.031000", "113556.031000", "113556.031000", "113556.031000", "113556.031000", "113556.031000", "113556.031000", "113556.031000", "113556.046000", "113556.046000", "113556.046000", "113556.046000", "113616.000000", "113616.000000", "113616.000000", "113616.000000", "113616.015000", "113616.015000", "113616.015000", "113616.015000", "113616.015000", "113616.031000", "113616.031000", "113616.031000", "113616.031000", "113616.031000", "113616.031000", "113616.031000", "113616.046000", "113616.046000", "113616.046000", "113616.046000", "113636.000000", "113636.000000", "113636.000000", "113636.000000", "113636.000000", "113636.015000", "113636.015000", "113636.015000", "113636.015000", "113636.015000", "113636.031000", "113636.031000", "113636.031000", "113636.031000", "113636.031000", "113636.031000", "113636.031000", "113636.046000", "113636.046000", "113636.046000", "113656.000000", "113656.000000", "113656.000000", "113656.000000", "113656.000000", "113656.015000", "113656.015000", "113656.015000", "113656.015000", "113656.015000", "113656.015000", "113656.031000", "113656.031000", "113656.031000", "113656.031000", "113656.031000", "113656.031000", "113656.031000", "113656.031000", "113656.046000", "113716.000000", "113716.000000", "113716.000000", "113716.000000", "113716.000000", "113716.015000", "113716.015000", "113716.015000", "113716.015000", "113716.015000", "113716.015000", "113716.015000", "113716.031000", "113716.031000", "113716.031000", "113716.031000", "113716.031000", "113716.031000", "113716.046000", "113716.046000", "113736.000000", "113736.000000", "113736.000000", "113736.000000", "113736.000000", "113736.015000", "113736.015000", "113736.015000", "113736.015000", "113736.015000", "113736.015000", "113736.015000", "113736.031000", "113736.031000", "113736.031000", "113736.031000", "113736.031000", "113736.031000", "113736.031000", "113736.031000", "113756.000000", "113756.000000", "113756.000000", "113756.000000", "113756.000000", "113756.015000", "113756.015000", "113756.015000", "113756.015000", "113756.015000", "113756.015000", "113756.015000", "113756.031000", "113756.031000", "113756.031000", "113756.031000", "113756.031000", "113756.031000", "113756.031000", "113756.031000", "113816.000000", "113816.000000", "113816.000000", "113816.000000", "113816.000000", "113816.015000", "113816.015000", "113816.015000", "113816.015000", "113816.031000", "113816.031000", "113816.031000", "113816.031000", "113816.031000", "113816.031000", "113816.031000", "113816.046000", "113816.046000", "113816.046000", "113816.046000", "113836.000000", "113836.000000", "113836.000000", "113836.000000", "113836.015000", "113836.015000", "113836.015000", "113836.015000", "113836.031000", "113836.031000", "113836.031000", "113836.031000", "113836.031000", "113836.031000", "113836.031000", "113836.046000", "113836.046000", "113836.046000", "113836.046000", "113836.046000", "113851.015000", "113851.015000", "113851.015000", "113851.015000", "113851.015000", "113851.015000", "113851.015000", "113851.031000", "113851.031000", "113851.031000", "113851.031000"],
      "InstanceNumber": [1, 2, 3, 4, 5, 6, 7, 8, 9, 10, 11, 12, 13, 14, 15, 16, 17, 18, 19, 20, 21, 22, 23, 24, 25, 26, 27, 28, 29, 30, 31, 32, 33, 34, 35, 36, 37, 38, 39, 40, 41, 42, 43, 44, 45, 46, 47, 48, 49, 50, 51, 52, 53, 54, 55, 56, 57, 58, 59, 60, 61, 62, 63, 64, 65, 66, 67, 68, 69, 70, 71, 72, 73, 74, 75, 76, 77, 78, 79, 80, 81, 82, 83, 84, 85, 86, 87, 88, 89, 90, 91, 92, 93, 94, 95, 96, 97, 98, 99, 100, 101, 102, 103, 104, 105, 106, 107, 108, 109, 110, 111, 112, 113, 114, 115, 116, 117, 118, 119, 120, 121, 122, 123, 124, 125, 126, 127, 128, 129, 130, 131, 132, 133, 134, 135, 136, 137, 138, 139, 140, 141, 142, 143, 144, 145, 146, 147, 148, 149, 150, 151, 152, 153, 154, 155, 156, 157, 158, 159, 160, 161, 162, 163, 164, 165, 166, 167, 168, 169, 170, 171, 172, 173, 174, 175, 176, 177, 178, 179, 180, 181, 182, 183, 184, 185, 186, 187, 188, 189, 190, 191, 192, 193, 194, 195, 196, 197, 198, 199, 200, 201, 202, 203, 204, 205, 206, 207, 208, 209, 210, 211, 212, 213, 214, 215, 216, 217, 218, 219, 220, 221, 222, 223, 224, 225, 226, 227, 228, 229, 230, 231, 232, 233, 234, 235, 236, 237, 238, 239, 240, 241, 242, 243, 244, 245, 246, 247, 248, 249, 250, 251, 252, 253, 254, 255, 256, 257, 258, 259, 260, 261, 262, 263, 264, 265, 266, 267, 268, 269, 270, 271, 272, 273, 274, 275, 276, 277, 278, 279, 280, 281, 282, 283, 284, 285, 286, 287, 288, 289, 290, 291, 292, 293, 294, 295, 296, 297, 298, 299, 300, 301, 302, 303, 304, 305, 306, 307, 308, 309, 310, 311, 312, 313, 314, 315, 316, 317, 318, 319, 320, 321, 322, 323, 324, 325, 326, 327, 328, 329, 330],
      "LargestImagePixelValue": [1804, 1786, 1829, 1783, 1787, 1804, 1770, 1791, 1770, 1809, 1779, 1758, 1767, 1782, 1761, 1764, 1780, 1822, 1782, 1775, 1807, 1767, 1821, 1769, 1779, 1774, 1788, 1778, 1799, 1781, 1811, 1796, 1770, 1762, 1765, 1767, 1775, 1784, 1767, 1777, 1785, 1775, 1778, 1798, 1780, 1776, 1775, 1781, 1765, 1795, 1792, 1795, 1766, 1770, 1774, 1770, 1770, 1751, 1773, 1758, 1801, 1769, 1800, 1773, 1775, 1752, 1791, 1776, 1792, 1773, 1775, 1769, 1765, 1763, 1751, 1780, 1773, 1770, 1776, 1751, 1765, 1786, 1775, 1776, 1783, 1797, 1780, 1776, 1758, 1772, 1767, 1796, 1756, 1773, 1787, 1784, 1763, 1795, 1799, 1776, 1785, 1797, 1768, 1798, 1791, 1764, 1802, 1766, 1804, 1780, 1779, 1768, 1788, 1766, 1759, 1798, 1805, 1799, 1764, 1800, 1809, 1778, 1782, 1767, 1775, 1777, 1788, 1816, 1781, 1768, 1776, 1775, 1760, 1767, 1780, 1795, 1774, 1774, 1768, 1761, 1778, 1783, 1785, 1784, 1786, 1767, 1765, 1772, 1775, 1778, 1755, 1780, 1781, 1774, 1802, 1779, 1784, 1812, 1781, 1774, 1767, 1787, 1781, 1777, 1797, 1775, 1765, 1782, 1777, 1782, 1778, 1774, 1796, 1778, 1772, 1785, 1790, 1784, 1786, 1793, 1821, 1769, 1766, 1798, 1753, 1782, 1779, 1805, 1757, 1796, 1781, 1806, 1784, 1778, 1794, 1797, 1784, 1779, 1785, 1769, 1791, 1791, 1780, 1793, 1791, 1767, 1778, 1787, 1815, 1783, 1791, 1760, 1776, 1768, 1807, 1785, 1774, 1814, 1794, 1815, 1832, 1788, 1830, 1830, 1774, 1803, 1796, 1782, 1787, 1770, 1775, 1821, 1769, 1798, 1808, 1771, 1803, 1789, 1777, 1785, 1767, 1789, 1780, 1761, 1803, 1806, 1750, 1795, 1768, 1805, 1786, 1774, 1804, 1805, 1801, 1804, 1770, 1815, 1769, 1748, 1770, 1789, 1818, 1815, 1827, 1795, 1808, 1815, 1812, 1797, 1778, 1789, 1803, 1811, 1788, 1790, 1807, 1791, 1815, 1826, 1795, 1770, 1798, 1817, 1776, 1791, 1771, 1804, 1791, 1800, 1829, 1798, 1804, 1766, 1789, 1806, 1789, 1826, 1784, 1794, 1805, 1788, 1795, 1803, 1804, 1812, 1790, 1790, 1806, 1791, 1802, 1811, 1789, 1799, 1779, 1845, 1786, 1784, 1801, 1796, 1793, 1795, 1768, 1777, 1764, 1791, 1783, 1816, 1785, 1787],
      "WindowCenter": [392.0, 391.0, 391.0, 391.0, 391.0, 390.0, 390.0, 389.0, 388.0, 388.0, 388.0, 389.0, 391.0, 392.0, 393.0, 392.0, 391.0, 391.0, 390.0, 389.0, 391.0, 392.0, 394.0, 393.0, 393.0, 391.0, 391.0, 391.0, 390.0, 389.0, 389.0, 391.0, 392.0, 392.0, 392.0, 391.0, 390.0, 390.0, 390.0, 390.0, 391.0, 391.0, 391.0, 393.0, 393.0, 393.0, 393.0, 392.0, 392.0, 392.0, 391.0, 391.0, 392.0, 392.0, 392.0, 393.0, 393.0, 392.0, 392.0, 391.0, 391.0, 391.0, 392.0, 392.0, 392.0, 391.0, 390.0, 390.0, 390.0, 390.0, 391.0, 392.0, 392.0, 392.0, 391.0, 390.0, 391.0, 392.0, 393.0, 393.0, 393.0, 392.0, 391.0, 391.0, 391.0, 391.0, 392.0, 392.0, 391.0, 390.0, 390.0, 390.0, 390.0, 391.0, 391.0, 392.0, 392.0, 391.0, 391.0, 391.0, 390.0, 390.0, 391.0, 391.0, 392.0, 392.0, 392.0, 392.0, 392.0, 392.0, 392.0, 392.0, 392.0, 392.0, 392.0, 392.0, 392.0, 392.0, 392.0, 393.0, 392.0, 392.0, 391.0, 391.0, 391.0, 391.0, 392.0, 391.0, 391.0, 390.0, 390.0, 390.0, 390.0, 389.0, 390.0, 391.0, 390.0, 391.0, 390.0, 390.0, 389.0, 389.0, 390.0, 390.0, 390.0, 390.0, 390.0, 389.0, 391.0, 392.0, 392.0, 391.0, 390.0, 391.0, 391.0, 390.0, 391.0, 392.0, 392.0, 392.0, 392.0, 392.0, 390.0, 389.0, 389.0, 389.0, 389.0, 390.0, 391.0, 392.0, 393.0, 393.0, 393.0, 392.0, 392.0, 391.0, 392.0, 392.0, 392.0, 392.0, 391.0, 389.0, 390.0, 391.0, 391.0, 391.0, 391.0, 391.0, 391.0, 392.0, 391.0, 392.0, 391.0, 390.0, 391.0, 392.0, 393.0, 393.0, 392.0, 392.0, 392.0, 392.0, 392.0, 392.0, 394.0, 393.0, 393.0, 391.0, 391.0, 392.0, 392.0, 392.0, 391.0, 391.0, 391.0, 391.0, 391.0, 390.0, 390.0, 391.0, 391.0, 391.0, 392.0, 392.0, 392.0, 391.0, 391.0, 391.0, 391.0, 392.0, 392.0, 391.0, 391.0, 391.0, 391.0, 391.0, 390.0, 391.0, 391.0, 391.0, 392.0, 393.0, 392.0, 392.0, 391.0, 391.0, 392.0, 392.0, 392.0, 393.0, 393.0, 393.0, 392.0, 392.0, 391.0, 390.0, 390.0, 390.0, 390.0, 391.0, 391.0, 391.0, 390.0, 389.0, 389.0, 389.0, 390.0, 390.0, 391.0, 391.0, 392.0, 392.0, 392.0, 392.0, 392.0, 392.0, 392.0, 392.0, 392.0, 391.0, 391.0, 392.0, 392.0, 393.0, 392.0, 391.0, 391.0, 391.0, 391.0, 391.0, 392.0, 393.0, 393.0, 393.0, 392.0, 389.0, 389.0, 390.0, 391.0, 392.0, 392.0, 392.0, 392.0, 390.0, 389.0, 389.0, 389.0, 391.0, 392.0, 395.0, 393.0, 392.0, 392.0, 392.0, 392.0, 392.0, 391.0, 392.0, 393.0, 393.0, 392.0, 391.0, 391.0, 391.0, 390.0, 391.0, 391.0, 391.0, 391.0, 392.0],
