{
  "AcquisitionMatrixPE": 104,
  "AcquisitionNumber": 1,
  "AcquisitionTime": "11:14:6.752500",
  "BandwidthPerPixelPhaseEncode": 43.054,
  "BaseResolution": 104,
  "CoilString": "C:E1_2",
  "ConversionSoftware": "dcm2niix",
  "ConversionSoftwareVersion": "v1.0.20191031",
  "DerivedVendorReportedEchoSpacing": 0.000669999,
  "DeviceSerialNumber": "18932",
  "DwellTime": 2.8e-06,
  "EchoTime": 0.02,
  "EffectiveEchoSpacing": 0.000223333,
  "FlipAngle": 30,
  "ImageComments": "Unaliased_MB2_PE2",
  "ImageOrientationPatientDICOM": [1, 0, 0, 0, 0.997916, -0.0645323],
  "ImageType": [
    "ORIGINAL",
    "PRIMARY",
    "M",
    "MB",
    "ND",
    "MOSAIC"
],
  "ImagingFrequency": 297.229,
  "InPlanePhaseEncodingDirectionDICOM": "COL",
  "InstitutionAddress": "Richmond_Street_North_1151_London_409EF2_Ontario_CA_N6A_5B7",
  "InstitutionName": "Robarts_Reserch_Institute",
  "InstitutionalDepartmentName": "Department",
  "MRAcquisitionType": "2D",
  "MagneticFieldStrength": 6.98,
  "Manufacturer": "Siemens",
  "ManufacturersModelName": "Investigational_Device_7T",
  "Modality": "MR",
  "MultibandAccelerationFactor": 2,
  "ParallelReductionFactorInPlane": 3,
  "PartialFourier": 0.875,
  "PatientPosition": "HFS",
  "PercentPhaseFOV": 100,
  "PhaseEncodingDirection": "j-",
  "PhaseEncodingSteps": 91,
  "PhaseResolution": 1,
  "PixelBandwidth": 1717,
  "ProcedureStepDescription": "Diedrichsen_SeqRep4",
  "ProtocolName": "mbep2d_bold_mb2_p3_AP_2iso",
  "PulseSequenceDetails": "%CustomerSeq%_cmrr_mbep2d_bold",
  "ReceiveCoilName": "CFMM_8Tx32Rx",
  "ReconMatrixPE": 104,
  "RefLinesPE": 36,
  "RepetitionTime": 1,
  "ScanOptions": "PFP_FS",
  "ScanningSequence": "EP",
  "SequenceName": "epfid2d1_104",
  "SequenceVariant": "SK_SS",
  "SeriesDescription": "mbep2d_bold_mb2_p3_AP_2iso",
  "SeriesNumber": 11,
  "ShimSetting": [21, 2025, 112, 1527, 162, 139, 116, -169],
  "SliceThickness": 2,
  "SliceTiming": [0, 0.2275, 0.455, 0.6825, 0.9125, 0.135, 0.365, 0.5925, 0.82, 0.045, 0.2725, 0.5, 0.73, 0.9575, 0.1825, 0.41, 0.6375, 0.865, 0.09, 0.3175, 0.5475, 0.775, 0, 0.2275, 0.455, 0.6825, 0.9125, 0.135, 0.365, 0.5925, 0.82, 0.045, 0.2725, 0.5, 0.73, 0.9575, 0.1825, 0.41, 0.6375, 0.865, 0.09, 0.3175, 0.5475, 0.775],
  "SoftwareVersions": "syngo_MR_B17",
  "SpacingBetweenSlices": 2,
  "StationName": "MASTER",
  "TaskName": "dsp",
  "TotalReadoutTime": 0.0230033,
  "TxRefAmp": 120,
  "dcmmeta_affine": [
    [-2.0, 0.0, 0.0, 110.53752899169922],
    [0.0, 1.9958312511444092, -0.12906460464000702, -93.92992401123047],
    [0.0, 0.1290646195411682, 1.9958311319351196, -24.118383407592773],
    [0.0, 0.0, 0.0, 1.0]
],
  "dcmmeta_reorient_transform": [
    [0.0, -1.0, 0.0, 103.0],
    [1.0, 0.0, 0.0, 0.0],
    [0.0, 0.0, 1.0, 0.0],
    [0.0, 0.0, 0.0, 1.0]
],
  "dcmmeta_shape": [104, 104, 44, 330],
  "dcmmeta_slice_dim": 2,
  "dcmmeta_version": 0.6,
  "global": {
    "const": {
      "AcquisitionMatrix": [104, 0, 0, 104],
      "AngioFlag": "N",
      "BitsAllocated": 16,
      "BitsStored": 12,
      "Columns": 728,
      "EchoNumbers": 1,
      "EchoTime": 20.0,
      "EchoTrainLength": 1,
      "FlipAngle": 30.0,
      "HighBit": 11,
      "ImageOrientationPatient": [1.0, 0.0, 0.0, 0.0, 0.99791561827596, -0.0645323081945],
      "ImagePositionPatient": [-734.53753042221, -734.34003680259, 29.443433329455],
      "ImageType": [
        "ORIGINAL",
        "PRIMARY",
        "M",
        "MB",
        "ND",
        "MOSAIC"
],
      "ImagedNucleus": "1H",
      "ImagingFrequency": 297.228928,
      "InPlanePhaseEncodingDirection": "COL",
      "MRAcquisitionType": "2D",
      "MagneticFieldStrength": 6.98,
      "Manufacturer": "SIEMENS",
      "ManufacturerModelName": "Investigational_Device_7T",
      "Modality": "MR",
      "NumberOfAverages": 1.0,
      "NumberOfPhaseEncodingSteps": 91,
      "PercentPhaseFieldOfView": 100.0,
      "PercentSampling": 100.0,
      "PerformedProcedureStepStartTime": "110323.750000",
      "PhotometricInterpretation": "MONOCHROME2",
      "PixelBandwidth": 1717.0,
      "PixelRepresentation": 0,
      "PixelSpacing": [2.0, 2.0],
      "ProtocolName": "mbep2d_bold_mb2_p3_AP 2iso",
      "RepetitionTime": 1000.0,
      "Rows": 728,
      "SAR": 0.0,
      "SamplesPerPixel": 1,
      "ScanOptions": [
        "PFP",
        "FS"
],
      "ScanningSequence": "EP",
      "SequenceName": "epfid2d1_104",
      "SequenceVariant": [
        "SK",
        "SS"
],
      "SeriesDescription": "mbep2d_bold_mb2_p3_AP 2iso",
      "SeriesNumber": 11,
      "SeriesTime": "111436.031000",
      "SliceLocation": -18.006595599367,
      "SliceThickness": 2.0,
      "SmallestImagePixelValue": 0,
      "SoftwareVersions": "syngo MR B17",
      "SpacingBetweenSlices": 1.9999999200773,
      "SpecificCharacterSet": "ISO_IR 100",
      "StudyID": "1",
      "StudyTime": "110323.687000",
      "TransmitCoilName": "CFMM_8Tx32Rx",
      "VariableFlipAngleFlag": "N",
      "WindowCenterWidthExplanation": "Algo1",
      "dBdt": 0.0},
    "slices": {}
  },
  "time": {
    "samples": {
      "AcquisitionNumber": [1, 2, 3, 4, 5, 6, 7, 8, 9, 10, 11, 12, 13, 14, 15, 16, 17, 18, 19, 20, 21, 22, 23, 24, 25, 26, 27, 28, 29, 30, 31, 32, 33, 34, 35, 36, 37, 38, 39, 40, 41, 42, 43, 44, 45, 46, 47, 48, 49, 50, 51, 52, 53, 54, 55, 56, 57, 58, 59, 60, 61, 62, 63, 64, 65, 66, 67, 68, 69, 70, 71, 72, 73, 74, 75, 76, 77, 78, 79, 80, 81, 82, 83, 84, 85, 86, 87, 88, 89, 90, 91, 92, 93, 94, 95, 96, 97, 98, 99, 100, 101, 102, 103, 104, 105, 106, 107, 108, 109, 110, 111, 112, 113, 114, 115, 116, 117, 118, 119, 120, 121, 122, 123, 124, 125, 126, 127, 128, 129, 130, 131, 132, 133, 134, 135, 136, 137, 138, 139, 140, 141, 142, 143, 144, 145, 146, 147, 148, 149, 150, 151, 152, 153, 154, 155, 156, 157, 158, 159, 160, 161, 162, 163, 164, 165, 166, 167, 168, 169, 170, 171, 172, 173, 174, 175, 176, 177, 178, 179, 180, 181, 182, 183, 184, 185, 186, 187, 188, 189, 190, 191, 192, 193, 194, 195, 196, 197, 198, 199, 200, 201, 202, 203, 204, 205, 206, 207, 208, 209, 210, 211, 212, 213, 214, 215, 216, 217, 218, 219, 220, 221, 222, 223, 224, 225, 226, 227, 228, 229, 230, 231, 232, 233, 234, 235, 236, 237, 238, 239, 240, 241, 242, 243, 244, 245, 246, 247, 248, 249, 250, 251, 252, 253, 254, 255, 256, 257, 258, 259, 260, 261, 262, 263, 264, 265, 266, 267, 268, 269, 270, 271, 272, 273, 274, 275, 276, 277, 278, 279, 280, 281, 282, 283, 284, 285, 286, 287, 288, 289, 290, 291, 292, 293, 294, 295, 296, 297, 298, 299, 300, 301, 302, 303, 304, 305, 306, 307, 308, 309, 310, 311, 312, 313, 314, 315, 316, 317, 318, 319, 320, 321, 322, 323, 324, 325, 326, 327, 328, 329, 330],
      "AcquisitionTime": ["111406.752500", "111407.755000", "111408.760000", "111409.762500", "111410.767500", "111411.772500", "111412.775000", "111413.780000", "111414.782500", "111415.787500", "111416.792500", "111417.795000", "111418.800000", "111419.805000", "111420.807500", "111421.812500", "111422.815000", "111423.820000", "111424.825000", "111425.827500", "111426.832500", "111427.835000", "111428.840000", "111429.845000", "111430.847500", "111431.852500", "111432.855000", "111433.860000", "111434.865000", "111435.867500", "111436.872500", "111437.875000", "111438.880000", "111439.885000", "111440.887500", "111441.892500", "111442.895000", "111443.900000", "111444.905000", "111445.907500", "111446.912500", "111447.915000", "111448.920000", "111449.925000", "111450.927500", "111451.932500", "111452.937500", "111453.940000", "111454.945000", "111455.947500", "111456.952500", "111457.957500", "111458.960000", "111459.965000", "111500.967500", "111501.972500", "111502.977500", "111503.980000", "111504.985000", "111505.987500", "111506.992500", "111507.997500", "111509.000000", "111510.005000", "111511.007500", "111512.012500", "111513.017500", "111514.020000", "111515.025000", "111516.027500", "111517.032500", "111518.037500", "111519.040000", "111520.045000", "111521.050000", "111522.052500", "111523.057500", "111524.060000", "111525.065000", "111526.070000", "111527.072500", "111528.077500", "111529.080000", "111530.085000", "111531.090000", "111532.092500", "111533.097500", "111534.100000", "111535.105000", "111536.110000", "111537.112500", "111538.117500", "111539.120000", "111540.125000", "111541.130000", "111542.132500", "111543.137500", "111544.140000", "111545.145000", "111546.150000", "111547.152500", "111548.157500", "111549.160000", "111550.165000", "111551.170000", "111552.172500", "111553.177500", "111554.182500", "111555.185000", "111556.190000", "111557.192500", "111558.197500", "111559.202500", "111600.205000", "111601.210000", "111602.212500", "111603.217500", "111604.222500", "111605.225000", "111606.230000", "111607.232500", "111608.237500", "111609.242500", "111610.245000", "111611.250000", "111612.252500", "111613.257500", "111614.262500", "111615.265000", "111616.270000", "111617.272500", "111618.277500", "111619.282500", "111620.285000", "111621.290000", "111622.292500", "111623.297500", "111624.302500", "111625.305000", "111626.310000", "111627.315000", "111628.317500", "111629.322500", "111630.325000", "111631.330000", "111632.335000", "111633.337500", "111634.342500", "111635.345000", "111636.350000", "111637.355000", "111638.357500", "111639.362500", "111640.365000", "111641.370000", "111642.375000", "111643.377500", "111644.382500", "111645.385000", "111646.390000", "111647.395000", "111648.397500", "111649.402500", "111650.405000", "111651.410000", "111652.415000", "111653.417500", "111654.422500", "111655.427500", "111656.430000", "111657.435000", "111658.437500", "111659.442500", "111700.447500", "111701.450000", "111702.455000", "111703.457500", "111704.462500", "111705.467500", "111706.470000", "111707.475000", "111708.477500", "111709.482500", "111710.487500", "111711.490000", "111712.495000", "111713.497500", "111714.502500", "111715.507500", "111716.510000", "111717.515000", "111718.517500", "111719.522500", "111720.527500", "111721.530000", "111722.535000", "111723.537500", "111724.542500", "111725.547500", "111726.550000", "111727.555000", "111728.560000", "111729.562500", "111730.567500", "111731.570000", "111732.575000", "111733.580000", "111734.582500", "111735.587500", "111736.590000", "111737.595000", "111738.600000", "111739.602500", "111740.607500", "111741.610000", "111742.615000", "111743.620000", "111744.622500", "111745.627500", "111746.630000", "111747.635000", "111748.640000", "111749.642500", "111750.647500", "111751.650000", "111752.655000", "111753.660000", "111754.662500", "111755.667500", "111756.672500", "111757.675000", "111758.680000", "111759.682500", "111800.687500", "111801.692500", "111802.695000", "111803.700000", "111804.702500", "111805.707500", "111806.712500", "111807.715000", "111808.720000", "111809.722500", "111810.727500", "111811.732500", "111812.735000", "111813.740000", "111814.742500", "111815.747500", "111816.752500", "111817.755000", "111818.760000", "111819.762500", "111820.767500", "111821.772500", "111822.775000", "111823.780000", "111824.782500", "111825.787500", "111826.792500", "111827.795000", "111828.800000", "111829.805000", "111830.807500", "111831.812500", "111832.815000", "111833.820000", "111834.825000", "111835.827500", "111836.832500", "111837.835000", "111838.840000", "111839.845000", "111840.847500", "111841.852500", "111842.855000", "111843.860000", "111844.865000", "111845.867500", "111846.872500", "111847.875000", "111848.880000", "111849.885000", "111850.887500", "111851.892500", "111852.895000", "111853.900000", "111854.905000", "111855.907500", "111856.912500", "111857.915000", "111858.920000", "111859.925000", "111900.927500", "111901.932500", "111902.937500", "111903.940000", "111904.945000", "111905.947500", "111906.952500", "111907.957500", "111908.960000", "111909.965000", "111910.967500", "111911.972500", "111912.977500", "111913.980000", "111914.985000", "111915.987500", "111916.992500", "111917.997500", "111919.000000", "111920.005000", "111921.007500", "111922.012500", "111923.017500", "111924.020000", "111925.025000", "111926.027500", "111927.032500", "111928.037500", "111929.040000", "111930.045000", "111931.050000", "111932.052500", "111933.057500", "111934.060000", "111935.065000", "111936.070000", "111937.072500"],
      "ContentTime": ["111436.031000", "111436.046000", "111436.046000", "111436.046000", "111436.046000", "111436.062000", "111436.062000", "111436.062000", "111436.062000", "111436.078000", "111436.078000", "111436.078000", "111436.078000", "111436.078000", "111436.078000", "111436.078000", "111436.093000", "111436.093000", "111436.093000", "111436.093000", "111436.093000", "111436.093000", "111436.093000", "111436.109000", "111436.109000", "111436.109000", "111436.109000", "111456.000000", "111456.000000", "111456.000000", "111456.000000", "111456.000000", "111456.015000", "111456.015000", "111456.015000", "111456.015000", "111456.015000", "111456.031000", "111456.031000", "111456.031000", "111456.031000", "111456.031000", "111456.031000", "111456.046000", "111456.046000", "111456.046000", "111456.046000", "111516.000000", "111516.000000", "111516.000000", "111516.015000", "111516.015000", "111516.015000", "111516.015000", "111516.015000", "111516.015000", "111516.031000", "111516.031000", "111516.031000", "111516.031000", "111516.031000", "111516.031000", "111516.031000", "111516.046000", "111516.046000", "111516.046000", "111516.046000", "111536.000000", "111536.000000", "111536.000000", "111536.015000", "111536.015000", "111536.015000", "111536.015000", "111536.015000", "111536.015000", "111536.015000", "111536.031000", "111536.031000", "111536.031000", "111536.031000", "111536.031000", "111536.031000", "111536.031000", "111536.031000", "111536.046000", "111536.046000", "111556.000000", "111556.000000", "111556.000000", "111556.000000", "111556.000000", "111556.015000", "111556.015000", "111556.015000", "111556.015000", "111556.015000", "111556.015000", "111556.031000", "111556.031000", "111556.031000", "111556.031000", "111556.031000", "111556.031000", "111556.031000", "111556.031000", "111556.046000", "111616.000000", "111616.000000", "111616.000000", "111616.000000", "111616.015000", "111616.015000", "111616.015000", "111616.015000", "111616.015000", "111616.015000", "111616.031000", "111616.031000", "111616.031000", "111616.031000", "111616.031000", "111616.031000", "111616.031000", "111616.046000", "111616.046000", "111616.046000", "111636.000000", "111636.000000", "111636.000000", "111636.000000", "111636.015000", "111636.015000", "111636.015000", "111636.015000", "111636.015000", "111636.015000", "111636.015000", "111636.031000", "111636.031000", "111636.031000", "111636.031000", "111636.031000", "111636.031000", "111636.031000", "111636.031000", "111636.046000", "111656.000000", "111656.000000", "111656.000000", "111656.000000", "111656.000000", "111656.015000", "111656.015000", "111656.015000", "111656.015000", "111656.015000", "111656.015000", "111656.031000", "111656.031000", "111656.031000", "111656.031000", "111656.031000", "111656.031000", "111656.031000", "111656.046000", "111656.046000", "111716.000000", "111716.000000", "111716.000000", "111716.000000", "111716.000000", "111716.015000", "111716.015000", "111716.015000", "111716.015000", "111716.015000", "111716.015000", "111716.015000", "111716.015000", "111716.031000", "111716.031000", "111716.031000", "111716.031000", "111716.046000", "111716.046000", "111716.046000", "111736.000000", "111736.000000", "111736.000000", "111736.000000", "111736.000000", "111736.015000", "111736.015000", "111736.015000", "111736.015000", "111736.015000", "111736.015000", "111736.015000", "111736.015000", "111736.031000", "111736.031000", "111736.031000", "111736.031000", "111736.031000", "111736.031000", "111736.031000", "111756.000000", "111756.000000", "111756.000000", "111756.000000", "111756.000000", "111756.015000", "111756.015000", "111756.015000", "111756.015000", "111756.015000", "111756.015000", "111756.015000", "111756.031000", "111756.031000", "111756.031000", "111756.031000", "111756.031000", "111756.031000", "111756.031000", "111756.046000", "111816.000000", "111816.000000", "111816.000000", "111816.000000", "111816.000000", "111816.015000", "111816.015000", "111816.015000", "111816.015000", "111816.015000", "111816.015000", "111816.015000", "111816.031000", "111816.031000", "111816.031000", "111816.031000", "111816.031000", "111816.031000", "111816.031000", "111816.046000", "111836.000000", "111836.000000", "111836.000000", "111836.015000", "111836.015000", "111836.015000", "111836.015000", "111836.015000", "111836.015000", "111836.031000", "111836.031000", "111836.031000", "111836.031000", "111836.031000", "111836.031000", "111836.031000", "111836.046000", "111836.046000", "111836.046000", "111836.062000", "111856.000000", "111856.000000", "111856.000000", "111856.000000", "111856.000000", "111856.015000", "111856.015000", "111856.015000", "111856.015000", "111856.015000", "111856.015000", "111856.031000", "111856.031000", "111856.031000", "111856.031000", "111856.031000", "111856.031000", "111856.031000", "111856.046000", "111856.046000", "111916.000000", "111916.000000", "111916.000000", "111916.000000", "111916.000000", "111916.015000", "111916.015000", "111916.015000", "111916.015000", "111916.015000", "111916.031000", "111916.031000", "111916.031000", "111916.031000", "111916.031000", "111916.031000", "111916.031000", "111916.031000", "111916.046000", "111916.046000", "111936.000000", "111936.000000", "111936.000000", "111936.000000", "111936.000000", "111936.015000", "111936.015000", "111936.015000", "111936.015000", "111936.015000", "111936.015000", "111936.031000", "111936.031000", "111936.031000", "111936.031000", "111936.031000", "111936.031000", "111936.031000", "111936.031000", "111936.046000", "111943.453000", "111943.453000", "111943.453000"],
      "InstanceCreationTime": ["111436.031000", "111436.046000", "111436.046000", "111436.046000", "111436.046000", "111436.062000", "111436.062000", "111436.062000", "111436.062000", "111436.078000", "111436.078000", "111436.078000", "111436.078000", "111436.078000", "111436.078000", "111436.078000", "111436.093000", "111436.093000", "111436.093000", "111436.093000", "111436.093000", "111436.093000", "111436.093000", "111436.109000", "111436.109000", "111436.109000", "111436.109000", "111456.000000", "111456.000000", "111456.000000", "111456.000000", "111456.000000", "111456.015000", "111456.015000", "111456.015000", "111456.015000", "111456.015000", "111456.031000", "111456.031000", "111456.031000", "111456.031000", "111456.031000", "111456.031000", "111456.046000", "111456.046000", "111456.046000", "111456.046000", "111516.000000", "111516.000000", "111516.000000", "111516.015000", "111516.015000", "111516.015000", "111516.015000", "111516.015000", "111516.015000", "111516.031000", "111516.031000", "111516.031000", "111516.031000", "111516.031000", "111516.031000", "111516.031000", "111516.046000", "111516.046000", "111516.046000", "111516.046000", "111536.000000", "111536.000000", "111536.000000", "111536.015000", "111536.015000", "111536.015000", "111536.015000", "111536.015000", "111536.015000", "111536.015000", "111536.031000", "111536.031000", "111536.031000", "111536.031000", "111536.031000", "111536.031000", "111536.031000", "111536.031000", "111536.046000", "111536.046000", "111556.000000", "111556.000000", "111556.000000", "111556.000000", "111556.000000", "111556.015000", "111556.015000", "111556.015000", "111556.015000", "111556.015000", "111556.015000", "111556.031000", "111556.031000", "111556.031000", "111556.031000", "111556.031000", "111556.031000", "111556.031000", "111556.031000", "111556.046000", "111616.000000", "111616.000000", "111616.000000", "111616.000000", "111616.015000", "111616.015000", "111616.015000", "111616.015000", "111616.015000", "111616.015000", "111616.031000", "111616.031000", "111616.031000", "111616.031000", "111616.031000", "111616.031000", "111616.031000", "111616.046000", "111616.046000", "111616.046000", "111636.000000", "111636.000000", "111636.000000", "111636.000000", "111636.015000", "111636.015000", "111636.015000", "111636.015000", "111636.015000", "111636.015000", "111636.015000", "111636.031000", "111636.031000", "111636.031000", "111636.031000", "111636.031000", "111636.031000", "111636.031000", "111636.031000", "111636.046000", "111656.000000", "111656.000000", "111656.000000", "111656.000000", "111656.000000", "111656.015000", "111656.015000", "111656.015000", "111656.015000", "111656.015000", "111656.015000", "111656.031000", "111656.031000", "111656.031000", "111656.031000", "111656.031000", "111656.031000", "111656.031000", "111656.046000", "111656.046000", "111716.000000", "111716.000000", "111716.000000", "111716.000000", "111716.000000", "111716.015000", "111716.015000", "111716.015000", "111716.015000", "111716.015000", "111716.015000", "111716.015000", "111716.015000", "111716.031000", "111716.031000", "111716.031000", "111716.031000", "111716.046000", "111716.046000", "111716.046000", "111736.000000", "111736.000000", "111736.000000", "111736.000000", "111736.000000", "111736.015000", "111736.015000", "111736.015000", "111736.015000", "111736.015000", "111736.015000", "111736.015000", "111736.015000", "111736.031000", "111736.031000", "111736.031000", "111736.031000", "111736.031000", "111736.031000", "111736.031000", "111756.000000", "111756.000000", "111756.000000", "111756.000000", "111756.000000", "111756.015000", "111756.015000", "111756.015000", "111756.015000", "111756.015000", "111756.015000", "111756.015000", "111756.031000", "111756.031000", "111756.031000", "111756.031000", "111756.031000", "111756.031000", "111756.031000", "111756.046000", "111816.000000", "111816.000000", "111816.000000", "111816.000000", "111816.000000", "111816.015000", "111816.015000", "111816.015000", "111816.015000", "111816.015000", "111816.015000", "111816.015000", "111816.031000", "111816.031000", "111816.031000", "111816.031000", "111816.031000", "111816.031000", "111816.031000", "111816.046000", "111836.000000", "111836.000000", "111836.000000", "111836.015000", "111836.015000", "111836.015000", "111836.015000", "111836.015000", "111836.015000", "111836.031000", "111836.031000", "111836.031000", "111836.031000", "111836.031000", "111836.031000", "111836.031000", "111836.046000", "111836.046000", "111836.046000", "111836.062000", "111856.000000", "111856.000000", "111856.000000", "111856.000000", "111856.000000", "111856.015000", "111856.015000", "111856.015000", "111856.015000", "111856.015000", "111856.015000", "111856.031000", "111856.031000", "111856.031000", "111856.031000", "111856.031000", "111856.031000", "111856.031000", "111856.046000", "111856.046000", "111916.000000", "111916.000000", "111916.000000", "111916.000000", "111916.000000", "111916.015000", "111916.015000", "111916.015000", "111916.015000", "111916.015000", "111916.031000", "111916.031000", "111916.031000", "111916.031000", "111916.031000", "111916.031000", "111916.031000", "111916.031000", "111916.046000", "111916.046000", "111936.000000", "111936.000000", "111936.000000", "111936.000000", "111936.000000", "111936.015000", "111936.015000", "111936.015000", "111936.015000", "111936.015000", "111936.015000", "111936.031000", "111936.031000", "111936.031000", "111936.031000", "111936.031000", "111936.031000", "111936.031000", "111936.031000", "111936.046000", "111943.453000", "111943.453000", "111943.453000"],
      "InstanceNumber": [1, 2, 3, 4, 5, 6, 7, 8, 9, 10, 11, 12, 13, 14, 15, 16, 17, 18, 19, 20, 21, 22, 23, 24, 25, 26, 27, 28, 29, 30, 31, 32, 33, 34, 35, 36, 37, 38, 39, 40, 41, 42, 43, 44, 45, 46, 47, 48, 49, 50, 51, 52, 53, 54, 55, 56, 57, 58, 59, 60, 61, 62, 63, 64, 65, 66, 67, 68, 69, 70, 71, 72, 73, 74, 75, 76, 77, 78, 79, 80, 81, 82, 83, 84, 85, 86, 87, 88, 89, 90, 91, 92, 93, 94, 95, 96, 97, 98, 99, 100, 101, 102, 103, 104, 105, 106, 107, 108, 109, 110, 111, 112, 113, 114, 115, 116, 117, 118, 119, 120, 121, 122, 123, 124, 125, 126, 127, 128, 129, 130, 131, 132, 133, 134, 135, 136, 137, 138, 139, 140, 141, 142, 143, 144, 145, 146, 147, 148, 149, 150, 151, 152, 153, 154, 155, 156, 157, 158, 159, 160, 161, 162, 163, 164, 165, 166, 167, 168, 169, 170, 171, 172, 173, 174, 175, 176, 177, 178, 179, 180, 181, 182, 183, 184, 185, 186, 187, 188, 189, 190, 191, 192, 193, 194, 195, 196, 197, 198, 199, 200, 201, 202, 203, 204, 205, 206, 207, 208, 209, 210, 211, 212, 213, 214, 215, 216, 217, 218, 219, 220, 221, 222, 223, 224, 225, 226, 227, 228, 229, 230, 231, 232, 233, 234, 235, 236, 237, 238, 239, 240, 241, 242, 243, 244, 245, 246, 247, 248, 249, 250, 251, 252, 253, 254, 255, 256, 257, 258, 259, 260, 261, 262, 263, 264, 265, 266, 267, 268, 269, 270, 271, 272, 273, 274, 275, 276, 277, 278, 279, 280, 281, 282, 283, 284, 285, 286, 287, 288, 289, 290, 291, 292, 293, 294, 295, 296, 297, 298, 299, 300, 301, 302, 303, 304, 305, 306, 307, 308, 309, 310, 311, 312, 313, 314, 315, 316, 317, 318, 319, 320, 321, 322, 323, 324, 325, 326, 327, 328, 329, 330],
      "LargestImagePixelValue": [1842, 1836, 1832, 1815, 1786, 1783, 1787, 1780, 1786, 1808, 1808, 1807, 1788, 1797, 1795, 1769, 1796, 1807, 1787, 1804, 1818, 1804, 1805, 1823, 1804, 1794, 1767, 1783, 1765, 1768, 1796, 1753, 1781, 1789, 1771, 1785, 1831, 1762, 1776, 1748, 1762, 1791, 1763, 1795, 1819, 1813, 1795, 1791, 1773, 1763, 1812, 1754, 1793, 1763, 1754, 1774, 1752, 1831, 1807, 1805, 1797, 1806, 1770, 1816, 1803, 1786, 1746, 1754, 1818, 1775, 1825, 1813, 1834, 1794, 1766, 1755, 1778, 1782, 1769, 1791, 1782, 1809, 1769, 1772, 1812, 1785, 1790, 1770, 1821, 1820, 1805, 1784, 1810, 1764, 1768, 1778, 1762, 1764, 1780, 1759, 1772, 1754, 1771, 1740, 1740, 1749, 1724, 1748, 1759, 1774, 1790, 1800, 1793, 1727, 1724, 1750, 1742, 1735, 1724, 1769, 1747, 1752, 1744, 1755, 1739, 1779, 1736, 1768, 1776, 1798, 1790, 1757, 1771, 1735, 1751, 1761, 1761, 1755, 1717, 1714, 1722, 1753, 1734, 1772, 1787, 1743, 1749, 1726, 1731, 1694, 1749, 1757, 1749, 1767, 1746, 1749, 1781, 1729, 1753, 1743, 1703, 1718, 1681, 1723, 1699, 1707, 1736, 1743, 1702, 1770, 1717, 1706, 1736, 1688, 1750, 1718, 1749, 1741, 1715, 1757, 1705, 1716, 1717, 1682, 1730, 1726, 1761, 1730, 1736, 1743, 1736, 1700, 1770, 1718, 1726, 1729, 1703, 1765, 1694, 1723, 1716, 1725, 1704, 1726, 1746, 1729, 1738, 1746, 1762, 1726, 1729, 1722, 1707, 1735, 1720, 1708, 1747, 1707, 1710, 1702, 1703, 1731, 1698, 1722, 1688, 1712, 1739, 1719, 1718, 1727, 1707, 1736, 1721, 1744, 1703, 1732, 1714, 1736, 1732, 1722, 1700, 1728, 1687, 1724, 1705, 1704, 1703, 1684, 1671, 1698, 1701, 1716, 1711, 1700, 1736, 1707, 1696, 1701, 1705, 1711, 1722, 1722, 1701, 1694, 1716, 1715, 1697, 1723, 1704, 1727, 1689, 1728, 1738, 1674, 1699, 1693, 1721, 1739, 1683, 1714, 1717, 1699, 1709, 1697, 1707, 1709, 1713, 1715, 1709, 1754, 1711, 1709, 1717, 1689, 1698, 1685, 1716, 1715, 1710, 1718, 1739, 1702, 1729, 1690, 1681, 1702, 1708, 1737, 1692, 1732, 1697, 1733, 1767, 1740, 1722, 1736, 1731, 1726, 1717, 1713, 1715, 1696, 1688, 1677, 1668, 1683, 1698, 1708, 1697, 1691],
      "WindowCenter": [395.0, 395.0, 394.0, 393.0, 391.0, 390.0, 390.0, 391.0, 392.0, 393.0, 393.0, 393.0, 394.0, 395.0, 395.0, 395.0, 395.0, 394.0, 394.0, 395.0, 395.0, 395.0, 395.0, 395.0, 395.0, 394.0, 394.0, 394.0, 394.0, 394.0, 394.0, 394.0, 393.0, 393.0, 393.0, 394.0, 394.0, 394.0, 393.0, 392.0, 393.0, 393.0, 393.0, 393.0, 395.0, 395.0, 395.0, 393.0, 393.0, 393.0, 393.0, 393.0, 393.0, 393.0, 393.0, 393.0, 393.0, 395.0, 396.0, 396.0, 394.0, 393.0, 393.0, 393.0, 393.0, 393.0, 393.0, 393.0, 395.0, 396.0, 395.0, 395.0, 395.0, 393.0, 393.0, 393.0, 393.0, 393.0, 393.0, 393.0, 393.0, 394.0, 394.0, 394.0, 394.0, 393.0, 393.0, 393.0, 395.0, 396.0, 395.0, 394.0, 394.0, 393.0, 392.0, 393.0, 393.0, 393.0, 393.0, 393.0, 393.0, 393.0, 393.0, 392.0, 392.0, 390.0, 389.0, 391.0, 393.0, 394.0, 395.0, 395.0, 394.0, 393.0, 393.0, 393.0, 392.0, 392.0, 392.0, 393.0, 392.0, 392.0, 393.0, 393.0, 392.0, 392.0, 393.0, 394.0, 395.0, 394.0, 392.0, 392.0, 392.0, 392.0, 393.0, 393.0, 394.0, 393.0, 392.0, 391.0, 392.0, 393.0, 394.0, 394.0, 394.0, 394.0, 393.0, 392.0, 392.0, 391.0, 393.0, 393.0, 393.0, 394.0, 395.0, 396.0, 396.0, 394.0, 394.0, 393.0, 392.0, 392.0, 391.0, 391.0, 391.0, 392.0, 392.0, 393.0, 393.0, 394.0, 392.0, 392.0, 392.0, 391.0, 394.0, 395.0, 397.0, 396.0, 394.0, 394.0, 392.0, 392.0, 391.0, 391.0, 393.0, 394.0, 395.0, 395.0, 394.0, 392.0, 391.0, 392.0, 393.0, 393.0, 393.0, 394.0, 394.0, 393.0, 392.0, 392.0, 392.0, 392.0, 392.0, 393.0, 393.0, 394.0, 394.0, 394.0, 395.0, 394.0, 394.0, 393.0, 393.0, 393.0, 393.0, 394.0, 393.0, 393.0, 393.0, 393.0, 393.0, 393.0, 392.0, 392.0, 393.0, 393.0, 394.0, 394.0, 394.0, 394.0, 393.0, 393.0, 393.0, 394.0, 394.0, 394.0, 394.0, 394.0, 393.0, 393.0, 393.0, 393.0, 393.0, 393.0, 392.0, 391.0, 390.0, 390.0, 392.0, 392.0, 392.0, 391.0, 391.0, 392.0, 393.0, 392.0, 393.0, 393.0, 394.0, 394.0, 393.0, 393.0, 393.0, 394.0, 394.0, 395.0, 395.0, 393.0, 392.0, 392.0, 391.0, 391.0, 391.0, 391.0, 390.0, 390.0, 390.0, 391.0, 392.0, 394.0, 394.0, 394.0, 392.0, 391.0, 392.0, 392.0, 393.0, 394.0, 394.0, 394.0, 392.0, 392.0, 391.0, 389.0, 390.0, 390.0, 392.0, 393.0, 394.0, 394.0, 393.0, 392.0, 391.0, 390.0, 390.0, 391.0, 393.0, 393.0, 393.0, 394.0, 394.0, 394.0, 393.0, 393.0, 394.0, 394.0, 394.0, 394.0, 393.0, 392.0, 392.0, 391.0, 391.0, 391.0, 391.0, 391.0, 390.0, 390.0, 389.0, 388.0],
