{
  "AcquisitionMatrixPE": 104,
  "AcquisitionNumber": 1,
  "AcquisitionTime": "11:39:21.522500",
  "BandwidthPerPixelPhaseEncode": 43.054,
  "BaseResolution": 104,
  "CoilString": "C:E1_2",
  "ConversionSoftware": "dcm2niix",
  "ConversionSoftwareVersion": "v1.0.20191031",
  "DerivedVendorReportedEchoSpacing": 0.000669999,
  "DeviceSerialNumber": "18932",
  "DwellTime": 2.8e-06,
  "EchoTime": 0.02,
  "EffectiveEchoSpacing": 0.000223333,
  "FlipAngle": 30,
  "ImageComments": "Unaliased_MB2_PE2",
  "ImageOrientationPatientDICOM": [1, 2e-16, 0, -2e-16, 0.987414, -0.158158],
  "ImageType": [
    "ORIGINAL",
    "PRIMARY",
    "M",
    "MB",
    "ND",
    "MOSAIC"
],
  "ImagingFrequency": 297.229,
  "InPlanePhaseEncodingDirectionDICOM": "COL",
  "InstitutionAddress": "Richmond_Street_North_1151_London_409EF2_Ontario_CA_N6A_5B7",
  "InstitutionName": "Robarts_Reserch_Institute",
  "InstitutionalDepartmentName": "Department",
  "MRAcquisitionType": "2D",
  "MagneticFieldStrength": 6.98,
  "Manufacturer": "Siemens",
  "ManufacturersModelName": "Investigational_Device_7T",
  "Modality": "MR",
  "MultibandAccelerationFactor": 2,
  "ParallelReductionFactorInPlane": 3,
  "PartialFourier": 0.875,
  "PatientPosition": "HFS",
  "PercentPhaseFOV": 100,
  "PhaseEncodingDirection": "j-",
  "PhaseEncodingSteps": 91,
  "PhaseResolution": 1,
  "PixelBandwidth": 1717,
  "ProcedureStepDescription": "Diedrichsen_SeqRep4",
  "ProtocolName": "mbep2d_bold_mb2_p3_AP_2iso",
  "PulseSequenceDetails": "%CustomerSeq%_cmrr_mbep2d_bold",
  "ReceiveCoilName": "CFMM_8Tx32Rx",
  "ReconMatrixPE": 104,
  "RefLinesPE": 36,
  "RepetitionTime": 1,
  "ScanOptions": "PFP_FS",
  "ScanningSequence": "EP",
  "SequenceName": "epfid2d1_104",
  "SequenceVariant": "SK_SS",
  "SeriesDescription": "mbep2d_bold_mb2_p3_AP_2iso",
  "SeriesNumber": 21,
  "ShimSetting": [-43, 1883, 307, 342, 11, -164, -204, -86],
  "SliceThickness": 2,
  "SliceTiming": [0, 0.2275, 0.455, 0.6825, 0.91, 0.135, 0.365, 0.5925, 0.82, 0.045, 0.2725, 0.5, 0.73, 0.9575, 0.1825, 0.41, 0.6375, 0.865, 0.09, 0.3175, 0.5475, 0.775, 0, 0.2275, 0.455, 0.6825, 0.91, 0.135, 0.365, 0.5925, 0.82, 0.045, 0.2725, 0.5, 0.73, 0.9575, 0.1825, 0.41, 0.6375, 0.865, 0.09, 0.3175, 0.5475, 0.775],
  "SoftwareVersions": "syngo_MR_B17",
  "SpacingBetweenSlices": 2,
  "StationName": "MASTER",
  "TaskName": "dsp",
  "TotalReadoutTime": 0.0230033,
  "TxRefAmp": 120,
  "dcmmeta_affine": [
    [-2.0, -4.000000067449534e-16, 6.326322323430879e-17, 110.53752899169922],
    [-4.000000067449534e-16, 1.9748276472091675, -0.3163161277770996, -106.99263763427734],
    [0.0, 0.3163161277770996, 1.9748276472091675, -51.37643814086914],
    [0.0, 0.0, 0.0, 1.0]
],
  "dcmmeta_reorient_transform": [
    [0.0, -1.0, 0.0, 103.0],
    [1.0, 0.0, 0.0, 0.0],
    [0.0, 0.0, 1.0, 0.0],
    [0.0, 0.0, 0.0, 1.0]
],
  "dcmmeta_shape": [104, 104, 44, 330],
  "dcmmeta_slice_dim": 2,
  "dcmmeta_version": 0.6,
  "global": {
    "const": {
      "AcquisitionMatrix": [104, 0, 0, 104],
      "AngioFlag": "N",
      "BitsAllocated": 16,
      "BitsStored": 12,
      "Columns": 728,
      "EchoNumbers": 1,
      "EchoTime": 20.0,
      "EchoTrainLength": 1,
      "FlipAngle": 30.0,
      "HighBit": 11,
      "ImageOrientationPatient": [1.0, 2e-16, 0.0, -2e-16, 0.98741380685208, -0.1581580666229],
      "ImagePositionPatient": [-734.53753042221, -712.5608198278, 79.894756400375],
      "ImageType": [
        "ORIGINAL",
        "PRIMARY",
        "M",
        "MB",
        "ND",
        "MOSAIC"
],
      "ImagedNucleus": "1H",
      "ImagingFrequency": 297.229073,
      "InPlanePhaseEncodingDirection": "COL",
      "MRAcquisitionType": "2D",
      "MagneticFieldStrength": 6.98,
      "Manufacturer": "SIEMENS",
      "ManufacturerModelName": "Investigational_Device_7T",
      "Modality": "MR",
      "NumberOfAverages": 1.0,
      "NumberOfPhaseEncodingSteps": 91,
      "PercentPhaseFieldOfView": 100.0,
      "PercentSampling": 100.0,
      "PerformedProcedureStepStartTime": "104908.406000",
      "PhotometricInterpretation": "MONOCHROME2",
      "PixelBandwidth": 1717.0,
      "PixelRepresentation": 0,
      "PixelSpacing": [2.0, 2.0],
      "ProtocolName": "mbep2d_bold_mb2_p3_AP 2iso",
      "RepetitionTime": 1000.0,
      "Rows": 728,
      "SAR": 0.0,
      "SamplesPerPixel": 1,
      "ScanOptions": [
        "PFP",
        "FS"
],
      "ScanningSequence": "EP",
      "SequenceName": "epfid2d1_104",
      "SequenceVariant": [
        "SK",
        "SS"
],
      "SeriesDescription": "mbep2d_bold_mb2_p3_AP 2iso",
      "SeriesNumber": 21,
      "SeriesTime": "113956.171000",
      "SliceLocation": -33.808056050358,
      "SliceThickness": 2.0,
      "SmallestImagePixelValue": 0,
      "SoftwareVersions": "syngo MR B17",
      "SpacingBetweenSlices": 1.999999996632,
      "SpecificCharacterSet": "ISO_IR 100",
      "StudyID": "1",
      "StudyTime": "104908.343000",
      "TransmitCoilName": "CFMM_8Tx32Rx",
      "VariableFlipAngleFlag": "N",
      "WindowCenterWidthExplanation": "Algo1",
      "dBdt": 0.0},
    "slices": {}
  },
  "time": {
    "samples": {
      "AcquisitionNumber": [1, 2, 3, 4, 5, 6, 7, 8, 9, 10, 11, 12, 13, 14, 15, 16, 17, 18, 19, 20, 21, 22, 23, 24, 25, 26, 27, 28, 29, 30, 31, 32, 33, 34, 35, 36, 37, 38, 39, 40, 41, 42, 43, 44, 45, 46, 47, 48, 49, 50, 51, 52, 53, 54, 55, 56, 57, 58, 59, 60, 61, 62, 63, 64, 65, 66, 67, 68, 69, 70, 71, 72, 73, 74, 75, 76, 77, 78, 79, 80, 81, 82, 83, 84, 85, 86, 87, 88, 89, 90, 91, 92, 93, 94, 95, 96, 97, 98, 99, 100, 101, 102, 103, 104, 105, 106, 107, 108, 109, 110, 111, 112, 113, 114, 115, 116, 117, 118, 119, 120, 121, 122, 123, 124, 125, 126, 127, 128, 129, 130, 131, 132, 133, 134, 135, 136, 137, 138, 139, 140, 141, 142, 143, 144, 145, 146, 147, 148, 149, 150, 151, 152, 153, 154, 155, 156, 157, 158, 159, 160, 161, 162, 163, 164, 165, 166, 167, 168, 169, 170, 171, 172, 173, 174, 175, 176, 177, 178, 179, 180, 181, 182, 183, 184, 185, 186, 187, 188, 189, 190, 191, 192, 193, 194, 195, 196, 197, 198, 199, 200, 201, 202, 203, 204, 205, 206, 207, 208, 209, 210, 211, 212, 213, 214, 215, 216, 217, 218, 219, 220, 221, 222, 223, 224, 225, 226, 227, 228, 229, 230, 231, 232, 233, 234, 235, 236, 237, 238, 239, 240, 241, 242, 243, 244, 245, 246, 247, 248, 249, 250, 251, 252, 253, 254, 255, 256, 257, 258, 259, 260, 261, 262, 263, 264, 265, 266, 267, 268, 269, 270, 271, 272, 273, 274, 275, 276, 277, 278, 279, 280, 281, 282, 283, 284, 285, 286, 287, 288, 289, 290, 291, 292, 293, 294, 295, 296, 297, 298, 299, 300, 301, 302, 303, 304, 305, 306, 307, 308, 309, 310, 311, 312, 313, 314, 315, 316, 317, 318, 319, 320, 321, 322, 323, 324, 325, 326, 327, 328, 329, 330],
      "AcquisitionTime": ["113921.522500", "113922.525000", "113923.530000", "113924.532500", "113925.537500", "113926.542500", "113927.545000", "113928.550000", "113929.552500", "113930.557500", "113931.562500", "113932.565000", "113933.570000", "113934.572500", "113935.577500", "113936.582500", "113937.585000", "113938.590000", "113939.595000", "113940.597500", "113941.602500", "113942.605000", "113943.610000", "113944.615000", "113945.617500", "113946.622500", "113947.625000", "113948.630000", "113949.635000", "113950.637500", "113951.642500", "113952.645000", "113953.650000", "113954.655000", "113955.657500", "113956.662500", "113957.665000", "113958.670000", "113959.675000", "114000.677500", "114001.682500", "114002.685000", "114003.690000", "114004.695000", "114005.697500", "114006.702500", "114007.705000", "114008.710000", "114009.715000", "114010.717500", "114011.722500", "114012.727500", "114013.730000", "114014.735000", "114015.737500", "114016.742500", "114017.747500", "114018.750000", "114019.755000", "114020.757500", "114021.762500", "114022.767500", "114023.770000", "114024.775000", "114025.777500", "114026.782500", "114027.787500", "114028.790000", "114029.795000", "114030.797500", "114031.802500", "114032.807500", "114033.810000", "114034.815000", "114035.817500", "114036.822500", "114037.827500", "114038.830000", "114039.835000", "114040.840000", "114041.842500", "114042.847500", "114043.850000", "114044.855000", "114045.860000", "114046.862500", "114047.867500", "114048.870000", "114049.875000", "114050.880000", "114051.882500", "114052.887500", "114053.890000", "114054.895000", "114055.900000", "114056.902500", "114057.907500", "114058.910000", "114059.915000", "114100.920000", "114101.922500", "114102.927500", "114103.930000", "114104.935000", "114105.940000", "114106.942500", "114107.947500", "114108.950000", "114109.955000", "114110.960000", "114111.962500", "114112.967500", "114113.972500", "114114.975000", "114115.980000", "114116.982500", "114117.987500", "114118.992500", "114119.995000", "114121.000000", "114122.002500", "114123.007500", "114124.012500", "114125.015000", "114126.020000", "114127.022500", "114128.027500", "114129.032500", "114130.035000", "114131.040000", "114132.042500", "114133.047500", "114134.052500", "114135.055000", "114136.060000", "114137.062500", "114138.067500", "114139.072500", "114140.075000", "114141.080000", "114142.082500", "114143.087500", "114144.092500", "114145.095000", "114146.100000", "114147.105000", "114148.107500", "114149.112500", "114150.115000", "114151.120000", "114152.125000", "114153.127500", "114154.132500", "114155.135000", "114156.140000", "114157.145000", "114158.147500", "114159.152500", "114200.155000", "114201.160000", "114202.165000", "114203.167500", "114204.172500", "114205.175000", "114206.180000", "114207.185000", "114208.187500", "114209.192500", "114210.195000", "114211.200000", "114212.205000", "114213.207500", "114214.212500", "114215.217500", "114216.220000", "114217.225000", "114218.227500", "114219.232500", "114220.237500", "114221.240000", "114222.245000", "114223.247500", "114224.252500", "114225.257500", "114226.260000", "114227.265000", "114228.267500", "114229.272500", "114230.277500", "114231.280000", "114232.285000", "114233.287500", "114234.292500", "114235.297500", "114236.300000", "114237.305000", "114238.307500", "114239.312500", "114240.317500", "114241.320000", "114242.325000", "114243.327500", "114244.332500", "114245.337500", "114246.340000", "114247.345000", "114248.350000", "114249.352500", "114250.357500", "114251.360000", "114252.365000", "114253.370000", "114254.372500", "114255.377500", "114256.380000", "114257.385000", "114258.390000", "114259.392500", "114300.397500", "114301.400000", "114302.405000", "114303.410000", "114304.412500", "114305.417500", "114306.420000", "114307.425000", "114308.430000", "114309.432500", "114310.437500", "114311.440000", "114312.445000", "114313.450000", "114314.452500", "114315.457500", "114316.460000", "114317.465000", "114318.470000", "114319.472500", "114320.477500", "114321.482500", "114322.485000", "114323.490000", "114324.492500", "114325.497500", "114326.502500", "114327.505000", "114328.510000", "114329.512500", "114330.517500", "114331.522500", "114332.525000", "114333.530000", "114334.532500", "114335.537500", "114336.542500", "114337.545000", "114338.550000", "114339.552500", "114340.557500", "114341.562500", "114342.565000", "114343.570000", "114344.572500", "114345.577500", "114346.582500", "114347.585000", "114348.590000", "114349.595000", "114350.597500", "114351.602500", "114352.605000", "114353.610000", "114354.615000", "114355.617500", "114356.622500", "114357.625000", "114358.630000", "114359.635000", "114400.637500", "114401.642500", "114402.645000", "114403.650000", "114404.655000", "114405.657500", "114406.662500", "114407.665000", "114408.670000", "114409.675000", "114410.677500", "114411.682500", "114412.685000", "114413.690000", "114414.695000", "114415.697500", "114416.702500", "114417.705000", "114418.710000", "114419.715000", "114420.717500", "114421.722500", "114422.727500", "114423.730000", "114424.735000", "114425.737500", "114426.742500", "114427.747500", "114428.750000", "114429.755000", "114430.757500", "114431.762500", "114432.767500", "114433.770000", "114434.775000", "114435.777500", "114436.782500", "114437.787500", "114438.790000", "114439.795000", "114440.797500", "114441.802500", "114442.807500", "114443.810000", "114444.815000", "114445.817500", "114446.822500", "114447.827500", "114448.830000", "114449.835000", "114450.840000", "114451.842500"],
      "ContentTime": ["113956.171000", "113956.171000", "113956.187000", "113956.187000", "113956.187000", "113956.187000", "113956.203000", "113956.203000", "113956.203000", "113956.203000", "113956.203000", "113956.203000", "113956.218000", "113956.218000", "113956.218000", "113956.218000", "113956.218000", "113956.218000", "113956.218000", "113956.218000", "113956.234000", "113956.234000", "113956.234000", "113956.234000", "113956.234000", "113956.234000", "113956.250000", "113956.250000", "113956.265000", "113956.265000", "113956.265000", "113956.265000", "113956.265000", "114016.109000", "114016.109000", "114016.125000", "114016.125000", "114016.125000", "114016.125000", "114016.125000", "114016.140000", "114016.140000", "114016.140000", "114016.140000", "114016.140000", "114016.156000", "114016.156000", "114016.156000", "114016.156000", "114016.156000", "114016.171000", "114016.171000", "114016.171000", "114036.109000", "114036.109000", "114036.125000", "114036.125000", "114036.140000", "114036.140000", "114036.140000", "114036.140000", "114036.156000", "114036.156000", "114036.156000", "114036.156000", "114036.156000", "114036.156000", "114036.171000", "114036.171000", "114036.171000", "114036.171000", "114036.171000", "114036.171000", "114056.109000", "114056.125000", "114056.125000", "114056.125000", "114056.140000", "114056.140000", "114056.140000", "114056.140000", "114056.140000", "114056.156000", "114056.156000", "114056.156000", "114056.156000", "114056.156000", "114056.156000", "114056.156000", "114056.171000", "114056.171000", "114056.171000", "114056.171000", "114116.109000", "114116.109000", "114116.125000", "114116.125000", "114116.125000", "114116.125000", "114116.125000", "114116.140000", "114116.140000", "114116.140000", "114116.140000", "114116.140000", "114116.156000", "114116.156000", "114116.156000", "114116.156000", "114116.156000", "114116.156000", "114116.171000", "114116.171000", "114136.109000", "114136.109000", "114136.125000", "114136.125000", "114136.125000", "114136.125000", "114136.125000", "114136.125000", "114136.125000", "114136.140000", "114136.140000", "114136.140000", "114136.140000", "114136.140000", "114136.140000", "114136.140000", "114136.156000", "114136.156000", "114136.156000", "114136.156000", "114156.109000", "114156.203000", "114156.203000", "114156.203000", "114156.203000", "114156.203000", "114156.203000", "114156.203000", "114156.218000", "114156.218000", "114156.218000", "114156.218000", "114156.234000", "114156.234000", "114156.234000", "114156.234000", "114156.234000", "114156.234000", "114156.250000", "114156.250000", "114216.109000", "114216.125000", "114216.125000", "114216.125000", "114216.125000", "114216.140000", "114216.140000", "114216.140000", "114216.156000", "114216.156000", "114216.156000", "114216.156000", "114216.171000", "114216.171000", "114216.171000", "114216.171000", "114216.187000", "114216.187000", "114216.187000", "114216.187000", "114236.109000", "114236.125000", "114236.125000", "114236.125000", "114236.140000", "114236.140000", "114236.140000", "114236.140000", "114236.156000", "114236.156000", "114236.156000", "114236.171000", "114236.171000", "114236.171000", "114236.171000", "114236.171000", "114236.171000", "114236.171000", "114236.171000", "114236.187000", "114256.109000", "114256.125000", "114256.125000", "114256.125000", "114256.125000", "114256.140000", "114256.140000", "114256.140000", "114256.140000", "114256.140000", "114256.156000", "114256.156000", "114256.156000", "114256.156000", "114256.156000", "114256.171000", "114256.171000", "114256.171000", "114256.171000", "114256.171000", "114316.109000", "114316.125000", "114316.125000", "114316.125000", "114316.156000", "114316.156000", "114316.171000", "114316.171000", "114316.171000", "114316.187000", "114316.187000", "114316.187000", "114316.187000", "114316.187000", "114316.187000", "114316.187000", "114316.203000", "114316.203000", "114316.203000", "114316.203000", "114336.109000", "114336.125000", "114336.125000", "114336.125000", "114336.125000", "114336.125000", "114336.140000", "114336.140000", "114336.140000", "114336.156000", "114336.156000", "114336.156000", "114336.156000", "114336.156000", "114336.156000", "114336.171000", "114336.171000", "114336.171000", "114336.171000", "114336.171000", "114356.109000", "114356.125000", "114356.125000", "114356.125000", "114356.125000", "114356.140000", "114356.140000", "114356.140000", "114356.140000", "114356.140000", "114356.140000", "114356.156000", "114356.156000", "114356.156000", "114356.156000", "114356.156000", "114356.171000", "114356.171000", "114356.171000", "114356.171000", "114416.109000", "114416.125000", "114416.125000", "114416.125000", "114416.140000", "114416.140000", "114416.140000", "114416.156000", "114416.156000", "114416.156000", "114416.156000", "114416.156000", "114416.156000", "114416.156000", "114416.171000", "114416.171000", "114416.171000", "114416.171000", "114416.187000", "114416.187000", "114436.109000", "114436.125000", "114436.125000", "114436.125000", "114436.125000", "114436.140000", "114436.140000", "114436.156000", "114436.156000", "114436.156000", "114436.156000", "114436.156000", "114436.156000", "114436.171000", "114436.171000", "114436.171000", "114436.171000", "114436.171000", "114436.171000", "114436.171000", "114457.390000", "114457.390000", "114457.390000", "114457.390000", "114457.406000", "114457.406000", "114457.406000", "114457.421000", "114457.421000", "114457.421000", "114457.421000", "114457.421000", "114457.421000", "114457.421000", "114457.437000", "114457.437000", "114457.437000"],
      "InstanceCreationTime": ["113956.171000", "113956.171000", "113956.187000", "113956.187000", "113956.187000", "113956.187000", "113956.203000", "113956.203000", "113956.203000", "113956.203000", "113956.203000", "113956.203000", "113956.218000", "113956.218000", "113956.218000", "113956.218000", "113956.218000", "113956.218000", "113956.218000", "113956.218000", "113956.234000", "113956.234000", "113956.234000", "113956.234000", "113956.234000", "113956.234000", "113956.250000", "113956.250000", "113956.265000", "113956.265000", "113956.265000", "113956.265000", "113956.265000", "114016.109000", "114016.109000", "114016.125000", "114016.125000", "114016.125000", "114016.125000", "114016.125000", "114016.140000", "114016.140000", "114016.140000", "114016.140000", "114016.140000", "114016.156000", "114016.156000", "114016.156000", "114016.156000", "114016.156000", "114016.171000", "114016.171000", "114016.171000", "114036.109000", "114036.109000", "114036.125000", "114036.125000", "114036.140000", "114036.140000", "114036.140000", "114036.140000", "114036.156000", "114036.156000", "114036.156000", "114036.156000", "114036.156000", "114036.156000", "114036.171000", "114036.171000", "114036.171000", "114036.171000", "114036.171000", "114036.171000", "114056.109000", "114056.125000", "114056.125000", "114056.125000", "114056.140000", "114056.140000", "114056.140000", "114056.140000", "114056.140000", "114056.156000", "114056.156000", "114056.156000", "114056.156000", "114056.156000", "114056.156000", "114056.156000", "114056.171000", "114056.171000", "114056.171000", "114056.171000", "114116.109000", "114116.109000", "114116.125000", "114116.125000", "114116.125000", "114116.125000", "114116.125000", "114116.140000", "114116.140000", "114116.140000", "114116.140000", "114116.140000", "114116.156000", "114116.156000", "114116.156000", "114116.156000", "114116.156000", "114116.156000", "114116.171000", "114116.171000", "114136.109000", "114136.109000", "114136.125000", "114136.125000", "114136.125000", "114136.125000", "114136.125000", "114136.125000", "114136.125000", "114136.140000", "114136.140000", "114136.140000", "114136.140000", "114136.140000", "114136.140000", "114136.140000", "114136.156000", "114136.156000", "114136.156000", "114136.156000", "114156.109000", "114156.203000", "114156.203000", "114156.203000", "114156.203000", "114156.203000", "114156.203000", "114156.203000", "114156.218000", "114156.218000", "114156.218000", "114156.218000", "114156.234000", "114156.234000", "114156.234000", "114156.234000", "114156.234000", "114156.234000", "114156.250000", "114156.250000", "114216.109000", "114216.125000", "114216.125000", "114216.125000", "114216.125000", "114216.140000", "114216.140000", "114216.140000", "114216.156000", "114216.156000", "114216.156000", "114216.156000", "114216.171000", "114216.171000", "114216.171000", "114216.171000", "114216.187000", "114216.187000", "114216.187000", "114216.187000", "114236.109000", "114236.125000", "114236.125000", "114236.125000", "114236.140000", "114236.140000", "114236.140000", "114236.140000", "114236.156000", "114236.156000", "114236.156000", "114236.171000", "114236.171000", "114236.171000", "114236.171000", "114236.171000", "114236.171000", "114236.171000", "114236.171000", "114236.187000", "114256.109000", "114256.125000", "114256.125000", "114256.125000", "114256.125000", "114256.140000", "114256.140000", "114256.140000", "114256.140000", "114256.140000", "114256.156000", "114256.156000", "114256.156000", "114256.156000", "114256.156000", "114256.171000", "114256.171000", "114256.171000", "114256.171000", "114256.171000", "114316.109000", "114316.125000", "114316.125000", "114316.125000", "114316.156000", "114316.156000", "114316.171000", "114316.171000", "114316.171000", "114316.187000", "114316.187000", "114316.187000", "114316.187000", "114316.187000", "114316.187000", "114316.187000", "114316.203000", "114316.203000", "114316.203000", "114316.203000", "114336.109000", "114336.125000", "114336.125000", "114336.125000", "114336.125000", "114336.125000", "114336.140000", "114336.140000", "114336.140000", "114336.156000", "114336.156000", "114336.156000", "114336.156000", "114336.156000", "114336.156000", "114336.171000", "114336.171000", "114336.171000", "114336.171000", "114336.171000", "114356.109000", "114356.125000", "114356.125000", "114356.125000", "114356.125000", "114356.140000", "114356.140000", "114356.140000", "114356.140000", "114356.140000", "114356.140000", "114356.156000", "114356.156000", "114356.156000", "114356.156000", "114356.156000", "114356.171000", "114356.171000", "114356.171000", "114356.171000", "114416.109000", "114416.125000", "114416.125000", "114416.125000", "114416.140000", "114416.140000", "114416.140000", "114416.156000", "114416.156000", "114416.156000", "114416.156000", "114416.156000", "114416.156000", "114416.156000", "114416.171000", "114416.171000", "114416.171000", "114416.171000", "114416.187000", "114416.187000", "114436.109000", "114436.125000", "114436.125000", "114436.125000", "114436.125000", "114436.140000", "114436.140000", "114436.156000", "114436.156000", "114436.156000", "114436.156000", "114436.156000", "114436.156000", "114436.171000", "114436.171000", "114436.171000", "114436.171000", "114436.171000", "114436.171000", "114436.171000", "114457.390000", "114457.390000", "114457.390000", "114457.390000", "114457.406000", "114457.406000", "114457.406000", "114457.421000", "114457.421000", "114457.421000", "114457.421000", "114457.421000", "114457.421000", "114457.421000", "114457.437000", "114457.437000", "114457.437000"],
      "InstanceNumber": [1, 2, 3, 4, 5, 6, 7, 8, 9, 10, 11, 12, 13, 14, 15, 16, 17, 18, 19, 20, 21, 22, 23, 24, 25, 26, 27, 28, 29, 30, 31, 32, 33, 34, 35, 36, 37, 38, 39, 40, 41, 42, 43, 44, 45, 46, 47, 48, 49, 50, 51, 52, 53, 54, 55, 56, 57, 58, 59, 60, 61, 62, 63, 64, 65, 66, 67, 68, 69, 70, 71, 72, 73, 74, 75, 76, 77, 78, 79, 80, 81, 82, 83, 84, 85, 86, 87, 88, 89, 90, 91, 92, 93, 94, 95, 96, 97, 98, 99, 100, 101, 102, 103, 104, 105, 106, 107, 108, 109, 110, 111, 112, 113, 114, 115, 116, 117, 118, 119, 120, 121, 122, 123, 124, 125, 126, 127, 128, 129, 130, 131, 132, 133, 134, 135, 136, 137, 138, 139, 140, 141, 142, 143, 144, 145, 146, 147, 148, 149, 150, 151, 152, 153, 154, 155, 156, 157, 158, 159, 160, 161, 162, 163, 164, 165, 166, 167, 168, 169, 170, 171, 172, 173, 174, 175, 176, 177, 178, 179, 180, 181, 182, 183, 184, 185, 186, 187, 188, 189, 190, 191, 192, 193, 194, 195, 196, 197, 198, 199, 200, 201, 202, 203, 204, 205, 206, 207, 208, 209, 210, 211, 212, 213, 214, 215, 216, 217, 218, 219, 220, 221, 222, 223, 224, 225, 226, 227, 228, 229, 230, 231, 232, 233, 234, 235, 236, 237, 238, 239, 240, 241, 242, 243, 244, 245, 246, 247, 248, 249, 250, 251, 252, 253, 254, 255, 256, 257, 258, 259, 260, 261, 262, 263, 264, 265, 266, 267, 268, 269, 270, 271, 272, 273, 274, 275, 276, 277, 278, 279, 280, 281, 282, 283, 284, 285, 286, 287, 288, 289, 290, 291, 292, 293, 294, 295, 296, 297, 298, 299, 300, 301, 302, 303, 304, 305, 306, 307, 308, 309, 310, 311, 312, 313, 314, 315, 316, 317, 318, 319, 320, 321, 322, 323, 324, 325, 326, 327, 328, 329, 330],
      "LargestImagePixelValue": [1677, 1624, 1604, 1617, 1594, 1637, 1613, 1607, 1606, 1609, 1603, 1597, 1611, 1603, 1623, 1636, 1617, 1614, 1622, 1619, 1628, 1661, 1617, 1627, 1607, 1609, 1601, 1605, 1595, 1633, 1643, 1626, 1642, 1627, 1626, 1594, 1589, 1622, 1651, 1618, 1619, 1629, 1651, 1615, 1606, 1623, 1610, 1600, 1628, 1634, 1661, 1633, 1627, 1699, 1709, 1644, 1703, 1707, 1721, 1636, 1630, 1636, 1619, 1620, 1622, 1605, 1616, 1621, 1686, 1644, 1659, 1636, 1613, 1606, 1623, 1591, 1597, 1636, 1643, 1635, 1609, 1603, 1611, 1645, 1607, 1608, 1625, 1640, 1614, 1612, 1672, 1676, 1632, 1633, 1647, 1635, 1734, 1720, 1727, 1692, 1665, 1691, 1705, 1698, 1782, 1645, 1570, 1601, 1703, 1625, 1599, 1613, 1780, 1856, 1766, 1799, 1742, 1817, 1778, 1779, 1732, 1627, 1631, 1664, 1703, 1743, 1713, 1785, 1830, 1873, 1802, 1785, 1825, 1886, 1848, 1855, 1869, 1861, 1857, 1846, 1876, 1800, 1852, 1891, 1901, 1865, 1867, 1925, 1907, 1836, 1810, 1846, 1853, 1811, 1872, 1870, 1836, 1836, 1836, 1855, 1779, 1772, 1804, 1797, 1843, 1889, 1817, 1871, 1944, 1922, 1861, 1850, 1861, 1845, 1841, 1811, 1824, 1818, 1841, 1831, 1814, 1851, 1910, 1881, 1895, 1885, 1875, 1879, 1896, 1899, 1961, 1894, 1918, 1927, 1893, 1841, 1786, 1812, 1797, 1843, 1840, 1812, 1841, 1857, 1849, 1842, 1882, 1895, 1934, 1892, 1859, 1830, 1841, 1811, 1848, 1817, 1817, 1872, 1901, 1867, 1835, 1814, 1800, 1765, 1719, 1757, 1750, 1820, 1862, 1855, 1868, 1808, 1796, 1764, 1721, 1737, 1822, 1811, 1802, 1822, 1828, 1816, 1885, 1878, 1870, 1848, 1835, 1781, 1757, 1793, 1793, 1791, 1772, 1835, 1878, 1776, 1766, 1800, 1774, 1771, 1772, 1773, 1850, 1722, 1676, 1804, 1750, 1808, 1848, 1810, 1793, 1810, 1789, 1785, 1796, 1753, 1735, 1782, 1842, 1839, 1854, 1910, 1905, 1850, 1829, 1790, 1831, 1875, 1913, 1863, 1852, 1794, 1826, 1803, 1821, 1774, 1806, 1858, 1820, 1870, 1758, 1763, 1820, 1825, 1785, 1817, 1789, 1774, 1753, 1741, 1678, 1705, 1714, 1720, 1733, 1783, 1791, 1756, 1837, 1814, 1808, 1789, 1829, 1845, 1816, 1759, 1746, 1714, 1732, 1744],
      "WindowCenter": [350.0, 348.0, 347.0, 348.0, 348.0, 348.0, 348.0, 348.0, 348.0, 348.0, 348.0, 348.0, 348.0, 348.0, 350.0, 351.0, 349.0, 349.0, 349.0, 349.0, 350.0, 350.0, 349.0, 349.0, 349.0, 348.0, 348.0, 348.0, 348.0, 349.0, 350.0, 350.0, 350.0, 349.0, 350.0, 349.0, 349.0, 348.0, 349.0, 349.0, 348.0, 349.0, 349.0, 348.0, 348.0, 348.0, 349.0, 349.0, 350.0, 351.0, 352.0, 352.0, 350.0, 351.0, 351.0, 351.0, 352.0, 352.0, 352.0, 350.0, 349.0, 348.0, 348.0, 347.0, 347.0, 347.0, 349.0, 349.0, 350.0, 349.0, 348.0, 347.0, 348.0, 347.0, 347.0, 347.0, 347.0, 349.0, 349.0, 349.0, 347.0, 348.0, 348.0, 348.0, 348.0, 347.0, 348.0, 349.0, 350.0, 349.0, 351.0, 351.0, 350.0, 350.0, 351.0, 350.0, 350.0, 350.0, 351.0, 351.0, 349.0, 349.0, 349.0, 348.0, 347.0, 347.0, 348.0, 348.0, 349.0, 348.0, 348.0, 348.0, 349.0, 350.0, 350.0, 350.0, 351.0, 351.0, 350.0, 348.0, 347.0, 346.0, 346.0, 347.0, 347.0, 349.0, 349.0, 350.0, 350.0, 351.0, 351.0, 350.0, 351.0, 352.0, 351.0, 351.0, 351.0, 350.0, 350.0, 348.0, 347.0, 347.0, 348.0, 349.0, 350.0, 350.0, 350.0, 350.0, 350.0, 349.0, 349.0, 350.0, 351.0, 350.0, 350.0, 351.0, 351.0, 350.0, 350.0, 350.0, 350.0, 349.0, 349.0, 350.0, 350.0, 350.0, 351.0, 351.0, 351.0, 351.0, 351.0, 351.0, 350.0, 350.0, 350.0, 350.0, 349.0, 349.0, 350.0, 349.0, 350.0, 350.0, 351.0, 350.0, 350.0, 349.0, 349.0, 349.0, 350.0, 351.0, 352.0, 352.0, 351.0, 351.0, 350.0, 350.0, 349.0, 350.0, 351.0, 351.0, 351.0, 352.0, 351.0, 351.0, 351.0, 351.0, 351.0, 351.0, 351.0, 351.0, 350.0, 350.0, 350.0, 350.0, 350.0, 350.0, 351.0, 351.0, 351.0, 351.0, 351.0, 351.0, 351.0, 351.0, 352.0, 352.0, 352.0, 353.0, 353.0, 352.0, 352.0, 350.0, 349.0, 349.0, 349.0, 350.0, 351.0, 352.0, 352.0, 351.0, 351.0, 352.0, 353.0, 353.0, 352.0, 351.0, 351.0, 350.0, 351.0, 351.0, 351.0, 351.0, 352.0, 352.0, 352.0, 351.0, 350.0, 350.0, 350.0, 351.0, 351.0, 352.0, 354.0, 353.0, 352.0, 352.0, 352.0, 352.0, 352.0, 351.0, 350.0, 349.0, 349.0, 349.0, 349.0, 349.0, 350.0, 350.0, 351.0, 352.0, 352.0, 351.0, 351.0, 351.0, 350.0, 351.0, 351.0, 352.0, 353.0, 352.0, 351.0, 349.0, 350.0, 350.0, 351.0, 353.0, 354.0, 354.0, 354.0, 354.0, 353.0, 352.0, 353.0, 353.0, 353.0, 353.0, 353.0, 351.0, 349.0, 349.0, 349.0, 349.0, 349.0, 349.0, 350.0, 351.0, 352.0, 352.0, 352.0, 352.0, 352.0, 352.0, 352.0, 352.0, 352.0, 351.0, 351.0, 351.0, 351.0, 350.0],
