{
  "AcquisitionMatrixPE": 104,
  "AcquisitionNumber": 1,
  "AcquisitionTime": "12:02:54.247500",
  "BandwidthPerPixelPhaseEncode": 43.054,
  "BaseResolution": 104,
  "CoilString": "C:E1_2",
  "ConversionSoftware": "dcm2niix",
  "ConversionSoftwareVersion": "v1.0.20191031",
  "DerivedVendorReportedEchoSpacing": 0.000669999,
  "DeviceSerialNumber": "18932",
  "DwellTime": 2.8e-06,
  "EchoTime": 0.02,
  "EffectiveEchoSpacing": 0.000223333,
  "FlipAngle": 30,
  "ImageComments": "Unaliased_MB2_PE2",
  "ImageOrientationPatientDICOM": [1, 2e-16, 0, -2e-16, 0.987414, -0.158158],
  "ImageType": [
    "ORIGINAL",
    "PRIMARY",
    "M",
    "MB",
    "ND",
    "MOSAIC"
],
  "ImagingFrequency": 297.229,
  "InPlanePhaseEncodingDirectionDICOM": "COL",
  "InstitutionAddress": "Richmond_Street_North_1151_London_409EF2_Ontario_CA_N6A_5B7",
  "InstitutionName": "Robarts_Reserch_Institute",
  "InstitutionalDepartmentName": "Department",
  "MRAcquisitionType": "2D",
  "MagneticFieldStrength": 6.98,
  "Manufacturer": "Siemens",
  "ManufacturersModelName": "Investigational_Device_7T",
  "Modality": "MR",
  "MultibandAccelerationFactor": 2,
  "ParallelReductionFactorInPlane": 3,
  "PartialFourier": 0.875,
  "PatientPosition": "HFS",
  "PercentPhaseFOV": 100,
  "PhaseEncodingDirection": "j-",
  "PhaseEncodingSteps": 91,
  "PhaseResolution": 1,
  "PixelBandwidth": 1717,
  "ProcedureStepDescription": "Diedrichsen_SeqRep4",
  "ProtocolName": "mbep2d_bold_mb2_p3_AP_2iso",
  "PulseSequenceDetails": "%CustomerSeq%_cmrr_mbep2d_bold",
  "ReceiveCoilName": "CFMM_8Tx32Rx",
  "ReconMatrixPE": 104,
  "RefLinesPE": 36,
  "RepetitionTime": 1,
  "ScanOptions": "PFP_FS",
  "ScanningSequence": "EP",
  "SequenceName": "epfid2d1_104",
  "SequenceVariant": "SK_SS",
  "SeriesDescription": "mbep2d_bold_mb2_p3_AP_2iso",
  "SeriesNumber": 30,
  "ShimSetting": [-43, 1883, 307, 342, 11, -164, -204, -86],
  "SliceThickness": 2,
  "SliceTiming": [0, 0.2275, 0.455, 0.6825, 0.9125, 0.135, 0.365, 0.5925, 0.82, 0.045, 0.2725, 0.5, 0.73, 0.9575, 0.1825, 0.41, 0.6375, 0.865, 0.09, 0.3175, 0.5475, 0.775, 0, 0.2275, 0.455, 0.6825, 0.9125, 0.135, 0.365, 0.5925, 0.82, 0.045, 0.2725, 0.5, 0.73, 0.9575, 0.1825, 0.41, 0.6375, 0.865, 0.09, 0.3175, 0.5475, 0.775],
  "SoftwareVersions": "syngo_MR_B17",
  "SpacingBetweenSlices": 2,
  "StationName": "MASTER",
  "TaskName": "dsp",
  "TotalReadoutTime": 0.0230033,
  "TxRefAmp": 120,
  "dcmmeta_affine": [
    [-2.0, -4.000000067449534e-16, 6.326322323430879e-17, 110.53752899169922],
    [-4.000000067449534e-16, 1.9748276472091675, -0.3163161277770996, -106.99263763427734],
    [0.0, 0.3163161277770996, 1.9748276472091675, -51.37643814086914],
    [0.0, 0.0, 0.0, 1.0]
],
  "dcmmeta_reorient_transform": [
    [0.0, -1.0, 0.0, 103.0],
    [1.0, 0.0, 0.0, 0.0],
    [0.0, 0.0, 1.0, 0.0],
    [0.0, 0.0, 0.0, 1.0]
],
  "dcmmeta_shape": [104, 104, 44, 330],
  "dcmmeta_slice_dim": 2,
  "dcmmeta_version": 0.6,
  "global": {
    "const": {
      "AcquisitionMatrix": [104, 0, 0, 104],
      "AngioFlag": "N",
      "BitsAllocated": 16,
      "BitsStored": 12,
      "Columns": 728,
      "EchoNumbers": 1,
      "EchoTime": 20.0,
      "EchoTrainLength": 1,
      "FlipAngle": 30.0,
      "HighBit": 11,
      "ImageOrientationPatient": [1.0, 2e-16, 0.0, -2e-16, 0.98741380685208, -0.1581580666229],
      "ImagePositionPatient": [-734.53753042221, -712.5608198278, 79.894756400375],
      "ImageType": [
        "ORIGINAL",
        "PRIMARY",
        "M",
        "MB",
        "ND",
        "MOSAIC"
],
      "ImagedNucleus": "1H",
      "ImagingFrequency": 297.229069,
      "InPlanePhaseEncodingDirection": "COL",
      "MRAcquisitionType": "2D",
      "MagneticFieldStrength": 6.98,
      "Manufacturer": "SIEMENS",
      "ManufacturerModelName": "Investigational_Device_7T",
      "Modality": "MR",
      "NumberOfAverages": 1.0,
      "NumberOfPhaseEncodingSteps": 91,
      "PercentPhaseFieldOfView": 100.0,
      "PercentSampling": 100.0,
      "PerformedProcedureStepStartTime": "104908.406000",
      "PhotometricInterpretation": "MONOCHROME2",
      "PixelBandwidth": 1717.0,
      "PixelRepresentation": 0,
      "PixelSpacing": [2.0, 2.0],
      "ProtocolName": "mbep2d_bold_mb2_p3_AP 2iso",
      "RepetitionTime": 1000.0,
      "Rows": 728,
      "SAR": 0.0,
      "SamplesPerPixel": 1,
      "ScanOptions": [
        "PFP",
        "FS"
],
      "ScanningSequence": "EP",
      "SequenceName": "epfid2d1_104",
      "SequenceVariant": [
        "SK",
        "SS"
],
      "SeriesDescription": "mbep2d_bold_mb2_p3_AP 2iso",
      "SeriesNumber": 30,
      "SeriesTime": "120316.156000",
      "SliceLocation": -33.808056050358,
      "SliceThickness": 2.0,
      "SmallestImagePixelValue": 0,
      "SoftwareVersions": "syngo MR B17",
      "SpacingBetweenSlices": 1.999999996632,
      "SpecificCharacterSet": "ISO_IR 100",
      "StudyID": "1",
      "StudyTime": "104908.343000",
      "TransmitCoilName": "CFMM_8Tx32Rx",
      "VariableFlipAngleFlag": "N",
      "WindowCenterWidthExplanation": "Algo1",
      "dBdt": 0.0},
    "slices": {}
  },
  "time": {
    "samples": {
      "AcquisitionNumber": [1, 2, 3, 4, 5, 6, 7, 8, 9, 10, 11, 12, 13, 14, 15, 16, 17, 18, 19, 20, 21, 22, 23, 24, 25, 26, 27, 28, 29, 30, 31, 32, 33, 34, 35, 36, 37, 38, 39, 40, 41, 42, 43, 44, 45, 46, 47, 48, 49, 50, 51, 52, 53, 54, 55, 56, 57, 58, 59, 60, 61, 62, 63, 64, 65, 66, 67, 68, 69, 70, 71, 72, 73, 74, 75, 76, 77, 78, 79, 80, 81, 82, 83, 84, 85, 86, 87, 88, 89, 90, 91, 92, 93, 94, 95, 96, 97, 98, 99, 100, 101, 102, 103, 104, 105, 106, 107, 108, 109, 110, 111, 112, 113, 114, 115, 116, 117, 118, 119, 120, 121, 122, 123, 124, 125, 126, 127, 128, 129, 130, 131, 132, 133, 134, 135, 136, 137, 138, 139, 140, 141, 142, 143, 144, 145, 146, 147, 148, 149, 150, 151, 152, 153, 154, 155, 156, 157, 158, 159, 160, 161, 162, 163, 164, 165, 166, 167, 168, 169, 170, 171, 172, 173, 174, 175, 176, 177, 178, 179, 180, 181, 182, 183, 184, 185, 186, 187, 188, 189, 190, 191, 192, 193, 194, 195, 196, 197, 198, 199, 200, 201, 202, 203, 204, 205, 206, 207, 208, 209, 210, 211, 212, 213, 214, 215, 216, 217, 218, 219, 220, 221, 222, 223, 224, 225, 226, 227, 228, 229, 230, 231, 232, 233, 234, 235, 236, 237, 238, 239, 240, 241, 242, 243, 244, 245, 246, 247, 248, 249, 250, 251, 252, 253, 254, 255, 256, 257, 258, 259, 260, 261, 262, 263, 264, 265, 266, 267, 268, 269, 270, 271, 272, 273, 274, 275, 276, 277, 278, 279, 280, 281, 282, 283, 284, 285, 286, 287, 288, 289, 290, 291, 292, 293, 294, 295, 296, 297, 298, 299, 300, 301, 302, 303, 304, 305, 306, 307, 308, 309, 310, 311, 312, 313, 314, 315, 316, 317, 318, 319, 320, 321, 322, 323, 324, 325, 326, 327, 328, 329, 330],
      "AcquisitionTime": ["120254.247500", "120255.250000", "120256.255000", "120257.257500", "120258.262500", "120259.267500", "120300.270000", "120301.275000", "120302.277500", "120303.282500", "120304.287500", "120305.290000", "120306.295000", "120307.300000", "120308.302500", "120309.307500", "120310.310000", "120311.315000", "120312.320000", "120313.322500", "120314.327500", "120315.330000", "120316.335000", "120317.340000", "120318.342500", "120319.347500", "120320.350000", "120321.355000", "120322.360000", "120323.362500", "120324.367500", "120325.370000", "120326.375000", "120327.380000", "120328.382500", "120329.387500", "120330.390000", "120331.395000", "120332.400000", "120333.402500", "120334.407500", "120335.410000", "120336.415000", "120337.420000", "120338.422500", "120339.427500", "120340.432500", "120341.435000", "120342.440000", "120343.442500", "120344.447500", "120345.452500", "120346.455000", "120347.460000", "120348.462500", "120349.467500", "120350.472500", "120351.475000", "120352.480000", "120353.482500", "120354.487500", "120355.492500", "120356.495000", "120357.500000", "120358.502500", "120359.507500", "120400.512500", "120401.515000", "120402.520000", "120403.522500", "120404.527500", "120405.532500", "120406.535000", "120407.540000", "120408.542500", "120409.547500", "120410.552500", "120411.555000", "120412.560000", "120413.565000", "120414.567500", "120415.572500", "120416.575000", "120417.580000", "120418.585000", "120419.587500", "120420.592500", "120421.595000", "120422.600000", "120423.605000", "120424.607500", "120425.612500", "120426.615000", "120427.620000", "120428.625000", "120429.627500", "120430.632500", "120431.635000", "120432.640000", "120433.645000", "120434.647500", "120435.652500", "120436.655000", "120437.660000", "120438.665000", "120439.667500", "120440.672500", "120441.677500", "120442.680000", "120443.685000", "120444.687500", "120445.692500", "120446.697500", "120447.700000", "120448.705000", "120449.707500", "120450.712500", "120451.717500", "120452.720000", "120453.725000", "120454.727500", "120455.732500", "120456.737500", "120457.740000", "120458.745000", "120459.747500", "120500.752500", "120501.757500", "120502.760000", "120503.765000", "120504.767500", "120505.772500", "120506.777500", "120507.780000", "120508.785000", "120509.787500", "120510.792500", "120511.797500", "120512.800000", "120513.805000", "120514.810000", "120515.812500", "120516.817500", "120517.820000", "120518.825000", "120519.830000", "120520.832500", "120521.837500", "120522.840000", "120523.845000", "120524.850000", "120525.852500", "120526.857500", "120527.860000", "120528.865000", "120529.870000", "120530.872500", "120531.877500", "120532.880000", "120533.885000", "120534.890000", "120535.892500", "120536.897500", "120537.900000", "120538.905000", "120539.910000", "120540.912500", "120541.917500", "120542.920000", "120543.925000", "120544.930000", "120545.932500", "120546.937500", "120547.942500", "120548.945000", "120549.950000", "120550.952500", "120551.957500", "120552.962500", "120553.965000", "120554.970000", "120555.972500", "120556.977500", "120557.982500", "120558.985000", "120559.990000", "120600.992500", "120601.997500", "120603.002500", "120604.005000", "120605.010000", "120606.012500", "120607.017500", "120608.022500", "120609.025000", "120610.030000", "120611.032500", "120612.037500", "120613.042500", "120614.045000", "120615.050000", "120616.055000", "120617.057500", "120618.062500", "120619.065000", "120620.070000", "120621.075000", "120622.077500", "120623.082500", "120624.085000", "120625.090000", "120626.095000", "120627.097500", "120628.102500", "120629.105000", "120630.110000", "120631.115000", "120632.117500", "120633.122500", "120634.125000", "120635.130000", "120636.135000", "120637.137500", "120638.142500", "120639.145000", "120640.150000", "120641.155000", "120642.157500", "120643.162500", "120644.165000", "120645.170000", "120646.175000", "120647.177500", "120648.182500", "120649.187500", "120650.190000", "120651.195000", "120652.197500", "120653.202500", "120654.207500", "120655.210000", "120656.215000", "120657.217500", "120658.222500", "120659.227500", "120700.230000", "120701.235000", "120702.237500", "120703.242500", "120704.247500", "120705.250000", "120706.255000", "120707.257500", "120708.262500", "120709.267500", "120710.270000", "120711.275000", "120712.277500", "120713.282500", "120714.287500", "120715.290000", "120716.295000", "120717.300000", "120718.302500", "120719.307500", "120720.310000", "120721.315000", "120722.320000", "120723.322500", "120724.327500", "120725.330000", "120726.335000", "120727.340000", "120728.342500", "120729.347500", "120730.350000", "120731.355000", "120732.360000", "120733.362500", "120734.367500", "120735.370000", "120736.375000", "120737.380000", "120738.382500", "120739.387500", "120740.390000", "120741.395000", "120742.400000", "120743.402500", "120744.407500", "120745.410000", "120746.415000", "120747.420000", "120748.422500", "120749.427500", "120750.432500", "120751.435000", "120752.440000", "120753.442500", "120754.447500", "120755.452500", "120756.455000", "120757.460000", "120758.462500", "120759.467500", "120800.472500", "120801.475000", "120802.480000", "120803.482500", "120804.487500", "120805.492500", "120806.495000", "120807.500000", "120808.502500", "120809.507500", "120810.512500", "120811.515000", "120812.520000", "120813.522500", "120814.527500", "120815.532500", "120816.535000", "120817.540000", "120818.542500", "120819.547500", "120820.552500", "120821.555000", "120822.560000", "120823.565000", "120824.567500"],
      "ContentTime": ["120316.171000", "120316.171000", "120316.171000", "120316.171000", "120316.187000", "120316.187000", "120316.187000", "120316.187000", "120316.187000", "120316.187000", "120316.187000", "120316.203000", "120316.203000", "120316.203000", "120316.203000", "120316.203000", "120316.203000", "120316.203000", "120316.203000", "120316.218000", "120336.109000", "120336.125000", "120336.125000", "120336.140000", "120336.140000", "120336.140000", "120336.140000", "120336.140000", "120336.140000", "120336.156000", "120336.156000", "120336.156000", "120336.156000", "120336.156000", "120336.156000", "120336.156000", "120336.171000", "120336.171000", "120336.171000", "120336.171000", "120356.109000", "120356.125000", "120356.125000", "120356.125000", "120356.125000", "120356.125000", "120356.140000", "120356.140000", "120356.140000", "120356.140000", "120356.140000", "120356.140000", "120356.140000", "120356.156000", "120356.156000", "120356.156000", "120356.156000", "120356.156000", "120356.156000", "120356.156000", "120416.109000", "120416.125000", "120416.125000", "120416.140000", "120416.140000", "120416.140000", "120416.140000", "120416.156000", "120416.156000", "120416.156000", "120416.156000", "120416.156000", "120416.156000", "120416.156000", "120416.171000", "120416.171000", "120416.171000", "120416.171000", "120416.171000", "120416.187000", "120436.109000", "120436.125000", "120436.125000", "120436.140000", "120436.140000", "120436.140000", "120436.140000", "120436.140000", "120436.140000", "120436.156000", "120436.156000", "120436.156000", "120436.156000", "120436.156000", "120436.156000", "120436.156000", "120436.171000", "120436.171000", "120436.171000", "120436.171000", "120456.109000", "120456.125000", "120456.140000", "120456.140000", "120456.140000", "120456.140000", "120456.156000", "120456.156000", "120456.156000", "120456.156000", "120456.171000", "120456.171000", "120456.171000", "120456.171000", "120456.171000", "120456.171000", "120456.171000", "120456.187000", "120456.187000", "120456.187000", "120516.109000", "120516.125000", "120516.125000", "120516.125000", "120516.125000", "120516.140000", "120516.140000", "120516.140000", "120516.140000", "120516.140000", "120516.156000", "120516.156000", "120516.156000", "120516.171000", "120516.171000", "120516.171000", "120516.171000", "120516.187000", "120516.187000", "120516.187000", "120536.109000", "120536.109000", "120536.125000", "120536.125000", "120536.140000", "120536.140000", "120536.140000", "120536.156000", "120536.156000", "120536.156000", "120536.156000", "120536.156000", "120536.171000", "120536.171000", "120536.187000", "120536.187000", "120536.187000", "120536.187000", "120536.203000", "120536.203000", "120556.109000", "120556.125000", "120556.125000", "120556.140000", "120556.140000", "120556.140000", "120556.140000", "120556.156000", "120556.156000", "120556.156000", "120556.156000", "120556.156000", "120556.156000", "120556.156000", "120556.171000", "120556.171000", "120556.171000", "120556.171000", "120556.171000", "120556.187000", "120616.109000", "120616.125000", "120616.125000", "120616.125000", "120616.140000", "120616.140000", "120616.156000", "120616.156000", "120616.171000", "120616.171000", "120616.171000", "120616.171000", "120616.171000", "120616.171000", "120616.187000", "120616.187000", "120616.187000", "120616.187000", "120616.187000", "120616.187000", "120636.109000", "120636.125000", "120636.125000", "120636.125000", "120636.125000", "120636.140000", "120636.140000", "120636.140000", "120636.140000", "120636.140000", "120636.140000", "120636.140000", "120636.156000", "120636.156000", "120636.156000", "120636.156000", "120636.156000", "120636.156000", "120636.156000", "120636.171000", "120656.109000", "120656.125000", "120656.125000", "120656.125000", "120656.125000", "120656.140000", "120656.140000", "120656.140000", "120656.140000", "120656.140000", "120656.156000", "120656.156000", "120656.156000", "120656.156000", "120656.156000", "120656.156000", "120656.156000", "120656.171000", "120656.171000", "120656.171000", "120716.109000", "120716.125000", "120716.125000", "120716.125000", "120716.140000", "120716.140000", "120716.140000", "120716.140000", "120716.156000", "120716.156000", "120716.156000", "120716.156000", "120716.156000", "120716.156000", "120716.156000", "120716.171000", "120716.171000", "120716.171000", "120716.171000", "120716.171000", "120736.109000", "120736.125000", "120736.125000", "120736.125000", "120736.125000", "120736.140000", "120736.140000", "120736.140000", "120736.140000", "120736.140000", "120736.156000", "120736.156000", "120736.156000", "120736.156000", "120736.156000", "120736.171000", "120736.171000", "120736.171000", "120736.171000", "120736.171000", "120756.109000", "120756.125000", "120756.125000", "120756.125000", "120756.125000", "120756.140000", "120756.140000", "120756.140000", "120756.140000", "120756.156000", "120756.156000", "120756.156000", "120756.156000", "120756.156000", "120756.156000", "120756.156000", "120756.156000", "120756.171000", "120756.171000", "120756.171000", "120816.109000", "120816.125000", "120816.125000", "120816.125000", "120816.140000", "120816.140000", "120816.140000", "120816.140000", "120816.140000", "120816.156000", "120816.156000", "120816.156000", "120816.156000", "120816.156000", "120816.156000", "120816.156000", "120816.156000", "120816.171000", "120816.171000", "120816.171000", "120830.343000", "120830.359000", "120830.359000", "120830.359000", "120830.359000", "120830.375000", "120830.375000", "120830.375000", "120830.375000", "120830.375000"],
      "InstanceCreationTime": ["120316.171000", "120316.171000", "120316.171000", "120316.171000", "120316.187000", "120316.187000", "120316.187000", "120316.187000", "120316.187000", "120316.187000", "120316.187000", "120316.203000", "120316.203000", "120316.203000", "120316.203000", "120316.203000", "120316.203000", "120316.203000", "120316.203000", "120316.218000", "120336.109000", "120336.125000", "120336.125000", "120336.140000", "120336.140000", "120336.140000", "120336.140000", "120336.140000", "120336.140000", "120336.156000", "120336.156000", "120336.156000", "120336.156000", "120336.156000", "120336.156000", "120336.156000", "120336.171000", "120336.171000", "120336.171000", "120336.171000", "120356.109000", "120356.125000", "120356.125000", "120356.125000", "120356.125000", "120356.125000", "120356.140000", "120356.140000", "120356.140000", "120356.140000", "120356.140000", "120356.140000", "120356.140000", "120356.156000", "120356.156000", "120356.156000", "120356.156000", "120356.156000", "120356.156000", "120356.156000", "120416.109000", "120416.125000", "120416.125000", "120416.140000", "120416.140000", "120416.140000", "120416.140000", "120416.156000", "120416.156000", "120416.156000", "120416.156000", "120416.156000", "120416.156000", "120416.156000", "120416.171000", "120416.171000", "120416.171000", "120416.171000", "120416.171000", "120416.187000", "120436.109000", "120436.125000", "120436.125000", "120436.140000", "120436.140000", "120436.140000", "120436.140000", "120436.140000", "120436.140000", "120436.156000", "120436.156000", "120436.156000", "120436.156000", "120436.156000", "120436.156000", "120436.156000", "120436.171000", "120436.171000", "120436.171000", "120436.171000", "120456.109000", "120456.125000", "120456.140000", "120456.140000", "120456.140000", "120456.140000", "120456.156000", "120456.156000", "120456.156000", "120456.156000", "120456.171000", "120456.171000", "120456.171000", "120456.171000", "120456.171000", "120456.171000", "120456.171000", "120456.187000", "120456.187000", "120456.187000", "120516.109000", "120516.125000", "120516.125000", "120516.125000", "120516.125000", "120516.140000", "120516.140000", "120516.140000", "120516.140000", "120516.140000", "120516.156000", "120516.156000", "120516.156000", "120516.171000", "120516.171000", "120516.171000", "120516.171000", "120516.187000", "120516.187000", "120516.187000", "120536.109000", "120536.109000", "120536.125000", "120536.125000", "120536.140000", "120536.140000", "120536.140000", "120536.156000", "120536.156000", "120536.156000", "120536.156000", "120536.156000", "120536.171000", "120536.171000", "120536.187000", "120536.187000", "120536.187000", "120536.187000", "120536.203000", "120536.203000", "120556.109000", "120556.125000", "120556.125000", "120556.140000", "120556.140000", "120556.140000", "120556.140000", "120556.156000", "120556.156000", "120556.156000", "120556.156000", "120556.156000", "120556.156000", "120556.156000", "120556.171000", "120556.171000", "120556.171000", "120556.171000", "120556.171000", "120556.187000", "120616.109000", "120616.125000", "120616.125000", "120616.125000", "120616.140000", "120616.140000", "120616.156000", "120616.156000", "120616.171000", "120616.171000", "120616.171000", "120616.171000", "120616.171000", "120616.171000", "120616.187000", "120616.187000", "120616.187000", "120616.187000", "120616.187000", "120616.187000", "120636.109000", "120636.125000", "120636.125000", "120636.125000", "120636.125000", "120636.140000", "120636.140000", "120636.140000", "120636.140000", "120636.140000", "120636.140000", "120636.140000", "120636.156000", "120636.156000", "120636.156000", "120636.156000", "120636.156000", "120636.156000", "120636.156000", "120636.171000", "120656.109000", "120656.125000", "120656.125000", "120656.125000", "120656.125000", "120656.140000", "120656.140000", "120656.140000", "120656.140000", "120656.140000", "120656.156000", "120656.156000", "120656.156000", "120656.156000", "120656.156000", "120656.156000", "120656.156000", "120656.171000", "120656.171000", "120656.171000", "120716.109000", "120716.125000", "120716.125000", "120716.125000", "120716.140000", "120716.140000", "120716.140000", "120716.140000", "120716.156000", "120716.156000", "120716.156000", "120716.156000", "120716.156000", "120716.156000", "120716.156000", "120716.171000", "120716.171000", "120716.171000", "120716.171000", "120716.171000", "120736.109000", "120736.125000", "120736.125000", "120736.125000", "120736.125000", "120736.140000", "120736.140000", "120736.140000", "120736.140000", "120736.140000", "120736.156000", "120736.156000", "120736.156000", "120736.156000", "120736.156000", "120736.171000", "120736.171000", "120736.171000", "120736.171000", "120736.171000", "120756.109000", "120756.125000", "120756.125000", "120756.125000", "120756.125000", "120756.140000", "120756.140000", "120756.140000", "120756.140000", "120756.156000", "120756.156000", "120756.156000", "120756.156000", "120756.156000", "120756.156000", "120756.156000", "120756.156000", "120756.171000", "120756.171000", "120756.171000", "120816.109000", "120816.125000", "120816.125000", "120816.125000", "120816.140000", "120816.140000", "120816.140000", "120816.140000", "120816.140000", "120816.156000", "120816.156000", "120816.156000", "120816.156000", "120816.156000", "120816.156000", "120816.156000", "120816.156000", "120816.171000", "120816.171000", "120816.171000", "120830.343000", "120830.359000", "120830.359000", "120830.359000", "120830.359000", "120830.375000", "120830.375000", "120830.375000", "120830.375000", "120830.375000"],
      "InstanceNumber": [1, 2, 3, 4, 5, 6, 7, 8, 9, 10, 11, 12, 13, 14, 15, 16, 17, 18, 19, 20, 21, 22, 23, 24, 25, 26, 27, 28, 29, 30, 31, 32, 33, 34, 35, 36, 37, 38, 39, 40, 41, 42, 43, 44, 45, 46, 47, 48, 49, 50, 51, 52, 53, 54, 55, 56, 57, 58, 59, 60, 61, 62, 63, 64, 65, 66, 67, 68, 69, 70, 71, 72, 73, 74, 75, 76, 77, 78, 79, 80, 81, 82, 83, 84, 85, 86, 87, 88, 89, 90, 91, 92, 93, 94, 95, 96, 97, 98, 99, 100, 101, 102, 103, 104, 105, 106, 107, 108, 109, 110, 111, 112, 113, 114, 115, 116, 117, 118, 119, 120, 121, 122, 123, 124, 125, 126, 127, 128, 129, 130, 131, 132, 133, 134, 135, 136, 137, 138, 139, 140, 141, 142, 143, 144, 145, 146, 147, 148, 149, 150, 151, 152, 153, 154, 155, 156, 157, 158, 159, 160, 161, 162, 163, 164, 165, 166, 167, 168, 169, 170, 171, 172, 173, 174, 175, 176, 177, 178, 179, 180, 181, 182, 183, 184, 185, 186, 187, 188, 189, 190, 191, 192, 193, 194, 195, 196, 197, 198, 199, 200, 201, 202, 203, 204, 205, 206, 207, 208, 209, 210, 211, 212, 213, 214, 215, 216, 217, 218, 219, 220, 221, 222, 223, 224, 225, 226, 227, 228, 229, 230, 231, 232, 233, 234, 235, 236, 237, 238, 239, 240, 241, 242, 243, 244, 245, 246, 247, 248, 249, 250, 251, 252, 253, 254, 255, 256, 257, 258, 259, 260, 261, 262, 263, 264, 265, 266, 267, 268, 269, 270, 271, 272, 273, 274, 275, 276, 277, 278, 279, 280, 281, 282, 283, 284, 285, 286, 287, 288, 289, 290, 291, 292, 293, 294, 295, 296, 297, 298, 299, 300, 301, 302, 303, 304, 305, 306, 307, 308, 309, 310, 311, 312, 313, 314, 315, 316, 317, 318, 319, 320, 321, 322, 323, 324, 325, 326, 327, 328, 329, 330],
      "LargestImagePixelValue": [1680, 1662, 1678, 1678, 1662, 1644, 1705, 1666, 1664, 1619, 1642, 1687, 1691, 1658, 1668, 1671, 1668, 1651, 1699, 1678, 1643, 1620, 1659, 1637, 1719, 1639, 1612, 1617, 1616, 1598, 1600, 1604, 1730, 1693, 1615, 1606, 1673, 1630, 1585, 1618, 1654, 1753, 1718, 1596, 1669, 1775, 1707, 1734, 1708, 1679, 1629, 1633, 1644, 1659, 1654, 1752, 1732, 1758, 1782, 1798, 1762, 1798, 1820, 1792, 1712, 1761, 1868, 1857, 1816, 1826, 1847, 1839, 1862, 1855, 1824, 1795, 1807, 1838, 1907, 1812, 1783, 1798, 1827, 1800, 1802, 1730, 1738, 1703, 1717, 1682, 1639, 1709, 1727, 1756, 1778, 1765, 1682, 1683, 1733, 1769, 1747, 1752, 1741, 1779, 1769, 1701, 1662, 1636, 1646, 1613, 1655, 1662, 1678, 1724, 1721, 1727, 1773, 1766, 1676, 1679, 1742, 1728, 1754, 1872, 1883, 1871, 1806, 1782, 1766, 1729, 1715, 1654, 1657, 1765, 1784, 1712, 1701, 1724, 1757, 1765, 1741, 1762, 1777, 1731, 1713, 1720, 1768, 1890, 1848, 1827, 1880, 1845, 1799, 1738, 1736, 1719, 1671, 1736, 1781, 1787, 1768, 1703, 1699, 1751, 1796, 1748, 1704, 1707, 1739, 1630, 1635, 1644, 1623, 1619, 1633, 1664, 1619, 1637, 1707, 1720, 1698, 1743, 1780, 1739, 1674, 1738, 1713, 1748, 1716, 1786, 1779, 1721, 1739, 1774, 1799, 1770, 1803, 1848, 1799, 1743, 1751, 1843, 1856, 1808, 1915, 1910, 1857, 1842, 1885, 1866, 1864, 1840, 1851, 1914, 1878, 1811, 1772, 1860, 1880, 1847, 1830, 1786, 1869, 1859, 1801, 1769, 1762, 1829, 1848, 1862, 1883, 1843, 1878, 1877, 1761, 1820, 1884, 1920, 1887, 1854, 1846, 1846, 1845, 1777, 1766, 1750, 1773, 1782, 1827, 1865, 1885, 1860, 1831, 1842, 1851, 1841, 1847, 1814, 1788, 1738, 1748, 1726, 1772, 1818, 1827, 1822, 1803, 1779, 1810, 1807, 1812, 1838, 1853, 1813, 1832, 1800, 1779, 1829, 1861, 1843, 1831, 1811, 1823, 1797, 1764, 1774, 1753, 1821, 1856, 1839, 1871, 1924, 1924, 1825, 1764, 1843, 1806, 1826, 1847, 1808, 1790, 1825, 1888, 1882, 1892, 1924, 1884, 1968, 1949, 1935, 1908, 1849, 1835, 1790, 1815, 1820, 1876, 1845, 1792, 1840, 1868, 1862, 1903, 1883, 1883, 1895, 1821, 1822, 1833, 1838],
      "WindowCenter": [349.0, 348.0, 349.0, 348.0, 348.0, 349.0, 349.0, 348.0, 349.0, 350.0, 350.0, 350.0, 349.0, 349.0, 349.0, 348.0, 347.0, 347.0, 348.0, 348.0, 348.0, 350.0, 350.0, 350.0, 351.0, 351.0, 350.0, 350.0, 351.0, 350.0, 349.0, 349.0, 349.0, 350.0, 349.0, 350.0, 351.0, 350.0, 348.0, 349.0, 349.0, 349.0, 349.0, 349.0, 350.0, 352.0, 351.0, 350.0, 349.0, 348.0, 348.0, 348.0, 348.0, 349.0, 351.0, 352.0, 352.0, 352.0, 352.0, 353.0, 352.0, 353.0, 353.0, 353.0, 352.0, 352.0, 353.0, 352.0, 352.0, 352.0, 352.0, 352.0, 352.0, 351.0, 351.0, 350.0, 350.0, 351.0, 352.0, 352.0, 352.0, 352.0, 351.0, 350.0, 350.0, 350.0, 349.0, 349.0, 349.0, 350.0, 350.0, 351.0, 352.0, 352.0, 352.0, 351.0, 351.0, 351.0, 352.0, 352.0, 352.0, 352.0, 352.0, 352.0, 351.0, 350.0, 350.0, 350.0, 350.0, 350.0, 351.0, 352.0, 352.0, 351.0, 351.0, 351.0, 351.0, 351.0, 351.0, 351.0, 352.0, 352.0, 352.0, 352.0, 351.0, 351.0, 351.0, 351.0, 351.0, 351.0, 351.0, 349.0, 349.0, 350.0, 350.0, 351.0, 351.0, 351.0, 351.0, 350.0, 350.0, 350.0, 350.0, 350.0, 351.0, 351.0, 352.0, 353.0, 352.0, 351.0, 352.0, 351.0, 351.0, 351.0, 351.0, 351.0, 351.0, 351.0, 351.0, 351.0, 350.0, 350.0, 351.0, 352.0, 353.0, 352.0, 352.0, 351.0, 351.0, 349.0, 349.0, 349.0, 350.0, 350.0, 350.0, 351.0, 352.0, 351.0, 352.0, 353.0, 352.0, 352.0, 352.0, 352.0, 350.0, 351.0, 352.0, 351.0, 351.0, 351.0, 352.0, 351.0, 350.0, 351.0, 351.0, 351.0, 352.0, 352.0, 352.0, 353.0, 354.0, 355.0, 354.0, 352.0, 352.0, 352.0, 352.0, 352.0, 353.0, 353.0, 352.0, 351.0, 351.0, 351.0, 351.0, 351.0, 352.0, 353.0, 351.0, 351.0, 350.0, 350.0, 351.0, 351.0, 352.0, 352.0, 352.0, 352.0, 351.0, 352.0, 351.0, 351.0, 351.0, 353.0, 353.0, 354.0, 355.0, 355.0, 353.0, 352.0, 352.0, 351.0, 350.0, 350.0, 350.0, 351.0, 351.0, 351.0, 351.0, 352.0, 352.0, 352.0, 352.0, 352.0, 352.0, 351.0, 350.0, 349.0, 349.0, 349.0, 349.0, 350.0, 351.0, 352.0, 352.0, 351.0, 351.0, 351.0, 351.0, 351.0, 351.0, 351.0, 351.0, 351.0, 351.0, 351.0, 351.0, 354.0, 354.0, 354.0, 354.0, 353.0, 352.0, 351.0, 351.0, 351.0, 352.0, 353.0, 353.0, 353.0, 353.0, 351.0, 351.0, 351.0, 351.0, 353.0, 353.0, 352.0, 351.0, 351.0, 351.0, 351.0, 352.0, 353.0, 353.0, 354.0, 354.0, 353.0, 351.0, 351.0, 350.0, 350.0, 349.0, 350.0, 350.0, 351.0, 351.0, 351.0, 351.0, 351.0, 351.0, 351.0, 351.0, 351.0, 351.0, 350.0, 350.0, 350.0, 352.0, 352.0],
