{
  "AcquisitionMatrixPE": 104,
  "AcquisitionNumber": 1,
  "AcquisitionTime": "11:12:43.665000",
  "BandwidthPerPixelPhaseEncode": 43.054,
  "BaseResolution": 104,
  "CoilString": "C:E1_2",
  "ConversionSoftware": "dcm2niix",
  "ConversionSoftwareVersion": "v1.0.20191031",
  "DerivedVendorReportedEchoSpacing": 0.000669999,
  "DeviceSerialNumber": "18932",
  "DwellTime": 2.8e-06,
  "EchoTime": 0.02,
  "EffectiveEchoSpacing": 0.000223333,
  "FlipAngle": 30,
  "ImageComments": "Unaliased_MB2_PE2",
  "ImageOrientationPatientDICOM": [1, 2e-16, 0, -2e-16, 0.987414, -0.158158],
  "ImageType": [
    "ORIGINAL",
    "PRIMARY",
    "M",
    "MB",
    "ND",
    "MOSAIC"
],
  "ImagingFrequency": 297.229,
  "InPlanePhaseEncodingDirectionDICOM": "COL",
  "InstitutionAddress": "Richmond_Street_North_1151_London_409EF2_Ontario_CA_N6A_5B7",
  "InstitutionName": "Robarts_Reserch_Institute",
  "InstitutionalDepartmentName": "Department",
  "MRAcquisitionType": "2D",
  "MagneticFieldStrength": 6.98,
  "Manufacturer": "Siemens",
  "ManufacturersModelName": "Investigational_Device_7T",
  "Modality": "MR",
  "MultibandAccelerationFactor": 2,
  "ParallelReductionFactorInPlane": 3,
  "PartialFourier": 0.875,
  "PatientPosition": "HFS",
  "PercentPhaseFOV": 100,
  "PhaseEncodingDirection": "j-",
  "PhaseEncodingSteps": 91,
  "PhaseResolution": 1,
  "PixelBandwidth": 1717,
  "ProcedureStepDescription": "Diedrichsen_SeqRep4",
  "ProtocolName": "mbep2d_bold_mb2_p3_AP_2iso",
  "PulseSequenceDetails": "%CustomerSeq%_cmrr_mbep2d_bold",
  "ReceiveCoilName": "CFMM_8Tx32Rx",
  "ReconMatrixPE": 104,
  "RefLinesPE": 36,
  "RepetitionTime": 1,
  "ScanOptions": "PFP_FS",
  "ScanningSequence": "EP",
  "SequenceName": "epfid2d1_104",
  "SequenceVariant": "SK_SS",
  "SeriesDescription": "mbep2d_bold_mb2_p3_AP_2iso",
  "SeriesNumber": 13,
  "ShimSetting": [-43, 1883, 307, 342, 11, -164, -204, -86],
  "SliceThickness": 2,
  "SliceTiming": [0, 0.2275, 0.455, 0.6825, 0.9125, 0.1375, 0.365, 0.5925, 0.82, 0.045, 0.2725, 0.5025, 0.73, 0.9575, 0.1825, 0.41, 0.6375, 0.865, 0.09, 0.32, 0.5475, 0.775, 0, 0.2275, 0.455, 0.6825, 0.9125, 0.1375, 0.365, 0.5925, 0.82, 0.045, 0.2725, 0.5025, 0.73, 0.9575, 0.1825, 0.41, 0.6375, 0.865, 0.09, 0.32, 0.5475, 0.775],
  "SoftwareVersions": "syngo_MR_B17",
  "SpacingBetweenSlices": 2,
  "StationName": "MASTER",
  "TaskName": "dsp",
  "TotalReadoutTime": 0.0230033,
  "TxRefAmp": 120,
  "dcmmeta_affine": [
    [-2.0, -4.000000067449534e-16, 6.326322323430879e-17, 110.53752899169922],
    [-4.000000067449534e-16, 1.9748276472091675, -0.3163161277770996, -106.99263763427734],
    [0.0, 0.3163161277770996, 1.9748276472091675, -51.37643814086914],
    [0.0, 0.0, 0.0, 1.0]
],
  "dcmmeta_reorient_transform": [
    [0.0, -1.0, 0.0, 103.0],
    [1.0, 0.0, 0.0, 0.0],
    [0.0, 0.0, 1.0, 0.0],
    [0.0, 0.0, 0.0, 1.0]
],
  "dcmmeta_shape": [104, 104, 44, 330],
  "dcmmeta_slice_dim": 2,
  "dcmmeta_version": 0.6,
  "global": {
    "const": {
      "AcquisitionMatrix": [104, 0, 0, 104],
      "AngioFlag": "N",
      "BitsAllocated": 16,
      "BitsStored": 12,
      "Columns": 728,
      "EchoNumbers": 1,
      "EchoTime": 20.0,
      "EchoTrainLength": 1,
      "FlipAngle": 30.0,
      "HighBit": 11,
      "ImageOrientationPatient": [1.0, 2e-16, 0.0, -2e-16, 0.98741380685208, -0.1581580666229],
      "ImagePositionPatient": [-734.53753042221, -712.5608198278, 79.894756400375],
      "ImageType": [
        "ORIGINAL",
        "PRIMARY",
        "M",
        "MB",
        "ND",
        "MOSAIC"
],
      "ImagedNucleus": "1H",
      "ImagingFrequency": 297.229046,
      "InPlanePhaseEncodingDirection": "COL",
      "MRAcquisitionType": "2D",
      "MagneticFieldStrength": 6.98,
      "Manufacturer": "SIEMENS",
      "ManufacturerModelName": "Investigational_Device_7T",
      "Modality": "MR",
      "NumberOfAverages": 1.0,
      "NumberOfPhaseEncodingSteps": 91,
      "PercentPhaseFieldOfView": 100.0,
      "PercentSampling": 100.0,
      "PerformedProcedureStepStartTime": "104908.406000",
      "PhotometricInterpretation": "MONOCHROME2",
      "PixelBandwidth": 1717.0,
      "PixelRepresentation": 0,
      "PixelSpacing": [2.0, 2.0],
      "ProtocolName": "mbep2d_bold_mb2_p3_AP 2iso",
      "RepetitionTime": 1000.0,
      "Rows": 728,
      "SAR": 0.0,
      "SamplesPerPixel": 1,
      "ScanOptions": [
        "PFP",
        "FS"
],
      "ScanningSequence": "EP",
      "SequenceName": "epfid2d1_104",
      "SequenceVariant": [
        "SK",
        "SS"
],
      "SeriesDescription": "mbep2d_bold_mb2_p3_AP 2iso",
      "SeriesNumber": 13,
      "SeriesTime": "111321.843000",
      "SliceLocation": -33.808056050358,
      "SliceThickness": 2.0,
      "SmallestImagePixelValue": 0,
      "SoftwareVersions": "syngo MR B17",
      "SpacingBetweenSlices": 1.999999996632,
      "SpecificCharacterSet": "ISO_IR 100",
      "StudyID": "1",
      "StudyTime": "104908.343000",
      "TransmitCoilName": "CFMM_8Tx32Rx",
      "VariableFlipAngleFlag": "N",
      "WindowCenterWidthExplanation": "Algo1",
      "dBdt": 0.0},
    "slices": {}
  },
  "time": {
    "samples": {
      "AcquisitionNumber": [1, 2, 3, 4, 5, 6, 7, 8, 9, 10, 11, 12, 13, 14, 15, 16, 17, 18, 19, 20, 21, 22, 23, 24, 25, 26, 27, 28, 29, 30, 31, 32, 33, 34, 35, 36, 37, 38, 39, 40, 41, 42, 43, 44, 45, 46, 47, 48, 49, 50, 51, 52, 53, 54, 55, 56, 57, 58, 59, 60, 61, 62, 63, 64, 65, 66, 67, 68, 69, 70, 71, 72, 73, 74, 75, 76, 77, 78, 79, 80, 81, 82, 83, 84, 85, 86, 87, 88, 89, 90, 91, 92, 93, 94, 95, 96, 97, 98, 99, 100, 101, 102, 103, 104, 105, 106, 107, 108, 109, 110, 111, 112, 113, 114, 115, 116, 117, 118, 119, 120, 121, 122, 123, 124, 125, 126, 127, 128, 129, 130, 131, 132, 133, 134, 135, 136, 137, 138, 139, 140, 141, 142, 143, 144, 145, 146, 147, 148, 149, 150, 151, 152, 153, 154, 155, 156, 157, 158, 159, 160, 161, 162, 163, 164, 165, 166, 167, 168, 169, 170, 171, 172, 173, 174, 175, 176, 177, 178, 179, 180, 181, 182, 183, 184, 185, 186, 187, 188, 189, 190, 191, 192, 193, 194, 195, 196, 197, 198, 199, 200, 201, 202, 203, 204, 205, 206, 207, 208, 209, 210, 211, 212, 213, 214, 215, 216, 217, 218, 219, 220, 221, 222, 223, 224, 225, 226, 227, 228, 229, 230, 231, 232, 233, 234, 235, 236, 237, 238, 239, 240, 241, 242, 243, 244, 245, 246, 247, 248, 249, 250, 251, 252, 253, 254, 255, 256, 257, 258, 259, 260, 261, 262, 263, 264, 265, 266, 267, 268, 269, 270, 271, 272, 273, 274, 275, 276, 277, 278, 279, 280, 281, 282, 283, 284, 285, 286, 287, 288, 289, 290, 291, 292, 293, 294, 295, 296, 297, 298, 299, 300, 301, 302, 303, 304, 305, 306, 307, 308, 309, 310, 311, 312, 313, 314, 315, 316, 317, 318, 319, 320, 321, 322, 323, 324, 325, 326, 327, 328, 329, 330],
      "AcquisitionTime": ["111243.665000", "111244.667500", "111245.672500", "111246.677500", "111247.680000", "111248.685000", "111249.687500", "111250.692500", "111251.697500", "111252.700000", "111253.705000", "111254.707500", "111255.712500", "111256.717500", "111257.720000", "111258.725000", "111259.730000", "111300.732500", "111301.737500", "111302.740000", "111303.745000", "111304.750000", "111305.752500", "111306.757500", "111307.760000", "111308.765000", "111309.770000", "111310.772500", "111311.777500", "111312.780000", "111313.785000", "111314.790000", "111315.792500", "111316.797500", "111317.800000", "111318.805000", "111319.810000", "111320.812500", "111321.817500", "111322.820000", "111323.825000", "111324.830000", "111325.832500", "111326.837500", "111327.840000", "111328.845000", "111329.850000", "111330.852500", "111331.857500", "111332.862500", "111333.865000", "111334.870000", "111335.872500", "111336.877500", "111337.882500", "111338.885000", "111339.890000", "111340.892500", "111341.897500", "111342.902500", "111343.905000", "111344.910000", "111345.912500", "111346.917500", "111347.922500", "111348.925000", "111349.930000", "111350.932500", "111351.937500", "111352.942500", "111353.945000", "111354.950000", "111355.952500", "111356.957500", "111357.962500", "111358.965000", "111359.970000", "111400.975000", "111401.977500", "111402.982500", "111403.985000", "111404.990000", "111405.995000", "111406.997500", "111408.002500", "111409.005000", "111410.010000", "111411.015000", "111412.017500", "111413.022500", "111414.025000", "111415.030000", "111416.035000", "111417.037500", "111418.042500", "111419.045000", "111420.050000", "111421.055000", "111422.057500", "111423.062500", "111424.065000", "111425.070000", "111426.075000", "111427.077500", "111428.082500", "111429.085000", "111430.090000", "111431.095000", "111432.097500", "111433.102500", "111434.107500", "111435.110000", "111436.115000", "111437.117500", "111438.122500", "111439.127500", "111440.130000", "111441.135000", "111442.137500", "111443.142500", "111444.147500", "111445.150000", "111446.155000", "111447.157500", "111448.162500", "111449.167500", "111450.170000", "111451.175000", "111452.177500", "111453.182500", "111454.187500", "111455.190000", "111456.195000", "111457.197500", "111458.202500", "111459.207500", "111500.210000", "111501.215000", "111502.217500", "111503.222500", "111504.227500", "111505.230000", "111506.235000", "111507.240000", "111508.242500", "111509.247500", "111510.250000", "111511.255000", "111512.260000", "111513.262500", "111514.267500", "111515.270000", "111516.275000", "111517.280000", "111518.282500", "111519.287500", "111520.290000", "111521.295000", "111522.300000", "111523.302500", "111524.307500", "111525.310000", "111526.315000", "111527.320000", "111528.322500", "111529.327500", "111530.330000", "111531.335000", "111532.340000", "111533.342500", "111534.347500", "111535.352500", "111536.355000", "111537.360000", "111538.362500", "111539.367500", "111540.372500", "111541.375000", "111542.380000", "111543.382500", "111544.387500", "111545.392500", "111546.395000", "111547.400000", "111548.402500", "111549.407500", "111550.412500", "111551.415000", "111552.420000", "111553.422500", "111554.427500", "111555.432500", "111556.435000", "111557.440000", "111558.442500", "111559.447500", "111600.452500", "111601.455000", "111602.460000", "111603.462500", "111604.467500", "111605.472500", "111606.475000", "111607.480000", "111608.485000", "111609.487500", "111610.492500", "111611.495000", "111612.500000", "111613.505000", "111614.507500", "111615.512500", "111616.515000", "111617.520000", "111618.525000", "111619.527500", "111620.532500", "111621.535000", "111622.540000", "111623.545000", "111624.547500", "111625.552500", "111626.555000", "111627.560000", "111628.565000", "111629.567500", "111630.572500", "111631.575000", "111632.580000", "111633.585000", "111634.587500", "111635.592500", "111636.595000", "111637.600000", "111638.605000", "111639.607500", "111640.612500", "111641.617500", "111642.620000", "111643.625000", "111644.627500", "111645.632500", "111646.637500", "111647.640000", "111648.645000", "111649.647500", "111650.652500", "111651.657500", "111652.660000", "111653.665000", "111654.667500", "111655.672500", "111656.677500", "111657.680000", "111658.685000", "111659.687500", "111700.692500", "111701.697500", "111702.700000", "111703.705000", "111704.707500", "111705.712500", "111706.717500", "111707.720000", "111708.725000", "111709.730000", "111710.732500", "111711.737500", "111712.740000", "111713.745000", "111714.750000", "111715.752500", "111716.757500", "111717.760000", "111718.765000", "111719.770000", "111720.772500", "111721.777500", "111722.780000", "111723.785000", "111724.790000", "111725.792500", "111726.797500", "111727.800000", "111728.805000", "111729.810000", "111730.812500", "111731.817500", "111732.820000", "111733.825000", "111734.830000", "111735.832500", "111736.837500", "111737.840000", "111738.845000", "111739.850000", "111740.852500", "111741.857500", "111742.862500", "111743.865000", "111744.870000", "111745.872500", "111746.877500", "111747.882500", "111748.885000", "111749.890000", "111750.892500", "111751.897500", "111752.902500", "111753.905000", "111754.910000", "111755.912500", "111756.917500", "111757.922500", "111758.925000", "111759.930000", "111800.932500", "111801.937500", "111802.942500", "111803.945000", "111804.950000", "111805.952500", "111806.957500", "111807.962500", "111808.965000", "111809.970000", "111810.975000", "111811.977500", "111812.982500", "111813.985000"],
      "ContentTime": ["111321.843000", "111321.859000", "111321.859000", "111321.859000", "111321.859000", "111321.859000", "111321.859000", "111321.859000", "111321.875000", "111321.875000", "111321.875000", "111321.875000", "111321.875000", "111321.890000", "111321.890000", "111321.890000", "111321.890000", "111321.890000", "111321.890000", "111321.906000", "111321.906000", "111321.906000", "111321.906000", "111321.906000", "111321.906000", "111321.906000", "111321.906000", "111321.921000", "111321.921000", "111321.921000", "111321.921000", "111321.921000", "111321.921000", "111321.921000", "111321.937000", "111321.937000", "111341.812000", "111341.828000", "111341.828000", "111341.828000", "111341.828000", "111341.843000", "111341.843000", "111341.843000", "111341.843000", "111341.843000", "111341.843000", "111341.859000", "111341.859000", "111341.859000", "111341.859000", "111341.859000", "111341.859000", "111341.859000", "111341.875000", "111341.875000", "111401.812000", "111401.828000", "111401.828000", "111401.828000", "111401.828000", "111401.828000", "111401.828000", "111401.828000", "111401.828000", "111401.843000", "111401.843000", "111401.843000", "111401.843000", "111401.843000", "111401.843000", "111401.843000", "111401.859000", "111401.859000", "111401.859000", "111401.859000", "111421.812000", "111421.828000", "111421.828000", "111421.843000", "111421.843000", "111421.843000", "111421.843000", "111421.843000", "111421.859000", "111421.859000", "111421.859000", "111421.859000", "111421.859000", "111421.875000", "111421.875000", "111421.875000", "111421.875000", "111421.875000", "111421.875000", "111421.875000", "111441.812000", "111441.828000", "111441.828000", "111441.828000", "111441.828000", "111441.828000", "111441.828000", "111441.843000", "111441.843000", "111441.843000", "111441.843000", "111441.843000", "111441.843000", "111441.859000", "111441.859000", "111441.859000", "111441.859000", "111441.859000", "111441.859000", "111441.859000", "111501.812000", "111501.828000", "111501.828000", "111501.828000", "111501.828000", "111501.828000", "111501.828000", "111501.828000", "111501.843000", "111501.843000", "111501.843000", "111501.843000", "111501.843000", "111501.859000", "111501.859000", "111501.859000", "111501.859000", "111501.859000", "111501.859000", "111501.859000", "111521.812000", "111521.828000", "111521.828000", "111521.828000", "111521.828000", "111521.828000", "111521.828000", "111521.828000", "111521.843000", "111521.843000", "111521.843000", "111521.843000", "111521.843000", "111521.859000", "111521.859000", "111521.859000", "111521.859000", "111521.859000", "111521.859000", "111521.859000", "111541.812000", "111541.828000", "111541.843000", "111541.859000", "111541.859000", "111541.859000", "111541.859000", "111541.859000", "111541.859000", "111541.859000", "111541.875000", "111541.875000", "111541.875000", "111541.875000", "111541.875000", "111541.890000", "111541.890000", "111541.890000", "111541.890000", "111541.890000", "111601.812000", "111601.828000", "111601.828000", "111601.828000", "111601.828000", "111601.828000", "111601.828000", "111601.828000", "111601.828000", "111601.843000", "111601.843000", "111601.843000", "111601.843000", "111601.843000", "111601.843000", "111601.843000", "111601.859000", "111601.859000", "111601.859000", "111601.859000", "111621.812000", "111621.828000", "111621.828000", "111621.828000", "111621.828000", "111621.828000", "111621.828000", "111621.828000", "111621.843000", "111621.843000", "111621.843000", "111621.859000", "111621.859000", "111621.859000", "111621.859000", "111621.859000", "111621.859000", "111621.859000", "111621.875000", "111621.875000", "111641.812000", "111641.828000", "111641.828000", "111641.828000", "111641.828000", "111641.828000", "111641.828000", "111641.828000", "111641.843000", "111641.843000", "111641.843000", "111641.843000", "111641.843000", "111641.859000", "111641.859000", "111641.859000", "111641.859000", "111641.859000", "111641.859000", "111641.859000", "111701.812000", "111701.828000", "111701.828000", "111701.828000", "111701.828000", "111701.828000", "111701.828000", "111701.828000", "111701.828000", "111701.843000", "111701.843000", "111701.843000", "111701.843000", "111701.843000", "111701.859000", "111701.859000", "111701.859000", "111701.859000", "111701.859000", "111701.859000", "111721.812000", "111721.828000", "111721.828000", "111721.828000", "111721.828000", "111721.828000", "111721.828000", "111721.828000", "111721.843000", "111721.843000", "111721.843000", "111721.843000", "111721.843000", "111721.843000", "111721.843000", "111721.843000", "111721.859000", "111721.859000", "111721.859000", "111721.859000", "111741.812000", "111741.828000", "111741.828000", "111741.828000", "111741.828000", "111741.828000", "111741.828000", "111741.828000", "111741.843000", "111741.843000", "111741.843000", "111741.843000", "111741.843000", "111741.843000", "111741.843000", "111741.843000", "111741.859000", "111741.859000", "111741.859000", "111741.859000", "111801.812000", "111801.828000", "111801.828000", "111801.828000", "111801.828000", "111801.828000", "111801.828000", "111801.828000", "111801.843000", "111801.843000", "111801.843000", "111801.843000", "111801.843000", "111801.843000", "111801.843000", "111801.843000", "111801.859000", "111801.859000", "111801.859000", "111801.859000", "111820.218000", "111820.218000", "111820.234000", "111820.234000", "111820.234000", "111820.234000", "111820.234000", "111820.234000", "111820.234000", "111820.234000", "111820.250000", "111820.250000", "111820.250000", "111820.250000"],
      "InstanceCreationTime": ["111321.843000", "111321.859000", "111321.859000", "111321.859000", "111321.859000", "111321.859000", "111321.859000", "111321.859000", "111321.875000", "111321.875000", "111321.875000", "111321.875000", "111321.875000", "111321.890000", "111321.890000", "111321.890000", "111321.890000", "111321.890000", "111321.890000", "111321.906000", "111321.906000", "111321.906000", "111321.906000", "111321.906000", "111321.906000", "111321.906000", "111321.906000", "111321.921000", "111321.921000", "111321.921000", "111321.921000", "111321.921000", "111321.921000", "111321.921000", "111321.937000", "111321.937000", "111341.812000", "111341.828000", "111341.828000", "111341.828000", "111341.828000", "111341.843000", "111341.843000", "111341.843000", "111341.843000", "111341.843000", "111341.843000", "111341.859000", "111341.859000", "111341.859000", "111341.859000", "111341.859000", "111341.859000", "111341.859000", "111341.875000", "111341.875000", "111401.812000", "111401.828000", "111401.828000", "111401.828000", "111401.828000", "111401.828000", "111401.828000", "111401.828000", "111401.828000", "111401.843000", "111401.843000", "111401.843000", "111401.843000", "111401.843000", "111401.843000", "111401.843000", "111401.859000", "111401.859000", "111401.859000", "111401.859000", "111421.812000", "111421.828000", "111421.828000", "111421.843000", "111421.843000", "111421.843000", "111421.843000", "111421.843000", "111421.859000", "111421.859000", "111421.859000", "111421.859000", "111421.859000", "111421.875000", "111421.875000", "111421.875000", "111421.875000", "111421.875000", "111421.875000", "111421.875000", "111441.812000", "111441.828000", "111441.828000", "111441.828000", "111441.828000", "111441.828000", "111441.828000", "111441.843000", "111441.843000", "111441.843000", "111441.843000", "111441.843000", "111441.843000", "111441.859000", "111441.859000", "111441.859000", "111441.859000", "111441.859000", "111441.859000", "111441.859000", "111501.812000", "111501.828000", "111501.828000", "111501.828000", "111501.828000", "111501.828000", "111501.828000", "111501.828000", "111501.843000", "111501.843000", "111501.843000", "111501.843000", "111501.843000", "111501.859000", "111501.859000", "111501.859000", "111501.859000", "111501.859000", "111501.859000", "111501.859000", "111521.812000", "111521.828000", "111521.828000", "111521.828000", "111521.828000", "111521.828000", "111521.828000", "111521.828000", "111521.843000", "111521.843000", "111521.843000", "111521.843000", "111521.843000", "111521.859000", "111521.859000", "111521.859000", "111521.859000", "111521.859000", "111521.859000", "111521.859000", "111541.812000", "111541.828000", "111541.843000", "111541.859000", "111541.859000", "111541.859000", "111541.859000", "111541.859000", "111541.859000", "111541.859000", "111541.875000", "111541.875000", "111541.875000", "111541.875000", "111541.875000", "111541.890000", "111541.890000", "111541.890000", "111541.890000", "111541.890000", "111601.812000", "111601.828000", "111601.828000", "111601.828000", "111601.828000", "111601.828000", "111601.828000", "111601.828000", "111601.828000", "111601.843000", "111601.843000", "111601.843000", "111601.843000", "111601.843000", "111601.843000", "111601.843000", "111601.859000", "111601.859000", "111601.859000", "111601.859000", "111621.812000", "111621.828000", "111621.828000", "111621.828000", "111621.828000", "111621.828000", "111621.828000", "111621.828000", "111621.843000", "111621.843000", "111621.843000", "111621.859000", "111621.859000", "111621.859000", "111621.859000", "111621.859000", "111621.859000", "111621.859000", "111621.875000", "111621.875000", "111641.812000", "111641.828000", "111641.828000", "111641.828000", "111641.828000", "111641.828000", "111641.828000", "111641.828000", "111641.843000", "111641.843000", "111641.843000", "111641.843000", "111641.843000", "111641.859000", "111641.859000", "111641.859000", "111641.859000", "111641.859000", "111641.859000", "111641.859000", "111701.812000", "111701.828000", "111701.828000", "111701.828000", "111701.828000", "111701.828000", "111701.828000", "111701.828000", "111701.828000", "111701.843000", "111701.843000", "111701.843000", "111701.843000", "111701.843000", "111701.859000", "111701.859000", "111701.859000", "111701.859000", "111701.859000", "111701.859000", "111721.812000", "111721.828000", "111721.828000", "111721.828000", "111721.828000", "111721.828000", "111721.828000", "111721.828000", "111721.843000", "111721.843000", "111721.843000", "111721.843000", "111721.843000", "111721.843000", "111721.843000", "111721.843000", "111721.859000", "111721.859000", "111721.859000", "111721.859000", "111741.812000", "111741.828000", "111741.828000", "111741.828000", "111741.828000", "111741.828000", "111741.828000", "111741.828000", "111741.843000", "111741.843000", "111741.843000", "111741.843000", "111741.843000", "111741.843000", "111741.843000", "111741.843000", "111741.859000", "111741.859000", "111741.859000", "111741.859000", "111801.812000", "111801.828000", "111801.828000", "111801.828000", "111801.828000", "111801.828000", "111801.828000", "111801.828000", "111801.843000", "111801.843000", "111801.843000", "111801.843000", "111801.843000", "111801.843000", "111801.843000", "111801.843000", "111801.859000", "111801.859000", "111801.859000", "111801.859000", "111820.218000", "111820.218000", "111820.234000", "111820.234000", "111820.234000", "111820.234000", "111820.234000", "111820.234000", "111820.234000", "111820.234000", "111820.250000", "111820.250000", "111820.250000", "111820.250000"],
      "InstanceNumber": [1, 2, 3, 4, 5, 6, 7, 8, 9, 10, 11, 12, 13, 14, 15, 16, 17, 18, 19, 20, 21, 22, 23, 24, 25, 26, 27, 28, 29, 30, 31, 32, 33, 34, 35, 36, 37, 38, 39, 40, 41, 42, 43, 44, 45, 46, 47, 48, 49, 50, 51, 52, 53, 54, 55, 56, 57, 58, 59, 60, 61, 62, 63, 64, 65, 66, 67, 68, 69, 70, 71, 72, 73, 74, 75, 76, 77, 78, 79, 80, 81, 82, 83, 84, 85, 86, 87, 88, 89, 90, 91, 92, 93, 94, 95, 96, 97, 98, 99, 100, 101, 102, 103, 104, 105, 106, 107, 108, 109, 110, 111, 112, 113, 114, 115, 116, 117, 118, 119, 120, 121, 122, 123, 124, 125, 126, 127, 128, 129, 130, 131, 132, 133, 134, 135, 136, 137, 138, 139, 140, 141, 142, 143, 144, 145, 146, 147, 148, 149, 150, 151, 152, 153, 154, 155, 156, 157, 158, 159, 160, 161, 162, 163, 164, 165, 166, 167, 168, 169, 170, 171, 172, 173, 174, 175, 176, 177, 178, 179, 180, 181, 182, 183, 184, 185, 186, 187, 188, 189, 190, 191, 192, 193, 194, 195, 196, 197, 198, 199, 200, 201, 202, 203, 204, 205, 206, 207, 208, 209, 210, 211, 212, 213, 214, 215, 216, 217, 218, 219, 220, 221, 222, 223, 224, 225, 226, 227, 228, 229, 230, 231, 232, 233, 234, 235, 236, 237, 238, 239, 240, 241, 242, 243, 244, 245, 246, 247, 248, 249, 250, 251, 252, 253, 254, 255, 256, 257, 258, 259, 260, 261, 262, 263, 264, 265, 266, 267, 268, 269, 270, 271, 272, 273, 274, 275, 276, 277, 278, 279, 280, 281, 282, 283, 284, 285, 286, 287, 288, 289, 290, 291, 292, 293, 294, 295, 296, 297, 298, 299, 300, 301, 302, 303, 304, 305, 306, 307, 308, 309, 310, 311, 312, 313, 314, 315, 316, 317, 318, 319, 320, 321, 322, 323, 324, 325, 326, 327, 328, 329, 330],
      "LargestImagePixelValue": [1880, 1867, 1827, 1885, 1857, 1813, 1760, 1797, 1796, 1813, 1811, 1731, 1766, 1819, 1804, 1783, 1840, 1806, 1862, 1833, 1782, 1799, 1813, 1837, 1827, 1848, 1822, 1782, 1839, 1802, 1785, 1761, 1796, 1808, 1812, 1791, 1751, 1781, 1798, 1753, 1752, 1770, 1779, 1771, 1817, 1790, 1795, 1782, 1799, 1810, 1796, 1788, 1844, 1797, 1806, 1792, 1784, 1804, 1794, 1831, 1835, 1825, 1821, 1841, 1804, 1824, 1805, 1815, 1756, 1795, 1810, 1865, 1801, 1812, 1843, 1849, 1828, 1792, 1847, 1815, 1802, 1823, 1808, 1843, 1808, 1836, 1853, 1817, 1813, 1890, 1867, 1819, 1800, 1852, 1749, 1777, 1782, 1785, 1782, 1829, 1832, 1830, 1855, 1836, 1835, 1721, 1696, 1694, 1738, 1751, 1758, 1784, 1790, 1770, 1806, 1843, 1792, 1764, 1802, 1797, 1807, 1810, 1776, 1801, 1814, 1798, 1744, 1675, 1677, 1732, 1741, 1789, 1764, 1706, 1759, 1808, 1779, 1768, 1732, 1753, 1777, 1763, 1764, 1752, 1782, 1772, 1732, 1712, 1761, 1606, 1661, 1631, 1653, 1627, 1660, 1655, 1649, 1608, 1608, 1605, 1623, 1584, 1598, 1601, 1613, 1677, 1647, 1577, 1590, 1622, 1660, 1663, 1615, 1650, 1654, 1653, 1664, 1608, 1640, 1643, 1626, 1631, 1618, 1615, 1613, 1656, 1637, 1670, 1645, 1652, 1613, 1625, 1667, 1632, 1646, 1658, 1679, 1611, 1722, 1682, 1615, 1634, 1639, 1629, 1648, 1657, 1643, 1660, 1674, 1644, 1630, 1662, 1664, 1656, 1663, 1635, 1640, 1689, 1693, 1669, 1666, 1675, 1701, 1697, 1717, 1656, 1733, 1766, 1736, 1737, 1674, 1708, 1733, 1750, 1706, 1703, 1756, 1769, 1715, 1767, 1733, 1711, 1787, 1755, 1763, 1783, 1744, 1772, 1747, 1777, 1738, 1717, 1756, 1782, 1746, 1718, 1723, 1766, 1767, 1750, 1730, 1765, 1756, 1806, 1752, 1744, 1760, 1792, 1806, 1733, 1759, 1767, 1764, 1779, 1806, 1823, 1793, 1839, 1812, 1789, 1793, 1804, 1796, 1782, 1822, 1760, 1773, 1820, 1837, 1754, 1797, 1799, 1831, 1834, 1838, 1809, 1813, 1815, 1802, 1837, 1822, 1817, 1814, 1793, 1789, 1769, 1796, 1822, 1815, 1834, 1803, 1819, 1797, 1837, 1846, 1799, 1793, 1861, 1809, 1824, 1811, 1827, 1792, 1835, 1838, 1815, 1813, 1859, 1881, 1831],
      "WindowCenter": [357.0, 356.0, 356.0, 355.0, 355.0, 355.0, 355.0, 355.0, 355.0, 355.0, 355.0, 355.0, 355.0, 356.0, 356.0, 356.0, 356.0, 356.0, 357.0, 356.0, 355.0, 355.0, 355.0, 355.0, 356.0, 357.0, 356.0, 355.0, 355.0, 355.0, 355.0, 355.0, 356.0, 356.0, 356.0, 356.0, 355.0, 355.0, 357.0, 357.0, 356.0, 357.0, 355.0, 354.0, 354.0, 355.0, 355.0, 355.0, 356.0, 356.0, 356.0, 355.0, 356.0, 355.0, 354.0, 355.0, 355.0, 355.0, 354.0, 355.0, 355.0, 355.0, 355.0, 355.0, 355.0, 355.0, 356.0, 356.0, 356.0, 356.0, 357.0, 357.0, 356.0, 355.0, 354.0, 354.0, 354.0, 353.0, 356.0, 356.0, 356.0, 357.0, 355.0, 354.0, 354.0, 354.0, 353.0, 353.0, 354.0, 355.0, 355.0, 355.0, 355.0, 356.0, 355.0, 356.0, 356.0, 356.0, 355.0, 355.0, 354.0, 354.0, 355.0, 354.0, 355.0, 356.0, 355.0, 355.0, 355.0, 356.0, 356.0, 356.0, 355.0, 354.0, 354.0, 355.0, 355.0, 355.0, 355.0, 354.0, 354.0, 355.0, 354.0, 355.0, 356.0, 356.0, 356.0, 357.0, 358.0, 358.0, 359.0, 359.0, 358.0, 356.0, 356.0, 355.0, 354.0, 355.0, 355.0, 355.0, 357.0, 357.0, 356.0, 355.0, 355.0, 355.0, 355.0, 356.0, 357.0, 358.0, 358.0, 358.0, 357.0, 356.0, 355.0, 354.0, 354.0, 354.0, 354.0, 354.0, 355.0, 355.0, 355.0, 354.0, 353.0, 352.0, 351.0, 351.0, 351.0, 353.0, 354.0, 356.0, 356.0, 356.0, 355.0, 355.0, 356.0, 356.0, 356.0, 357.0, 357.0, 357.0, 356.0, 355.0, 354.0, 354.0, 353.0, 354.0, 356.0, 356.0, 357.0, 356.0, 356.0, 355.0, 354.0, 354.0, 355.0, 355.0, 355.0, 355.0, 355.0, 355.0, 354.0, 354.0, 353.0, 353.0, 353.0, 353.0, 354.0, 354.0, 353.0, 353.0, 353.0, 353.0, 354.0, 355.0, 356.0, 355.0, 355.0, 355.0, 355.0, 355.0, 355.0, 355.0, 356.0, 356.0, 357.0, 356.0, 356.0, 357.0, 357.0, 358.0, 357.0, 356.0, 356.0, 355.0, 355.0, 355.0, 355.0, 356.0, 356.0, 356.0, 356.0, 356.0, 355.0, 355.0, 355.0, 355.0, 355.0, 355.0, 353.0, 353.0, 353.0, 352.0, 352.0, 352.0, 351.0, 353.0, 354.0, 354.0, 354.0, 354.0, 354.0, 353.0, 352.0, 352.0, 353.0, 354.0, 354.0, 354.0, 354.0, 354.0, 354.0, 354.0, 354.0, 354.0, 355.0, 356.0, 356.0, 355.0, 355.0, 354.0, 354.0, 353.0, 353.0, 353.0, 353.0, 353.0, 354.0, 354.0, 353.0, 353.0, 354.0, 354.0, 355.0, 355.0, 356.0, 355.0, 354.0, 354.0, 353.0, 353.0, 354.0, 355.0, 356.0, 356.0, 355.0, 355.0, 355.0, 354.0, 353.0, 353.0, 354.0, 355.0, 354.0, 354.0, 353.0, 352.0, 352.0, 352.0, 351.0, 352.0, 352.0, 352.0, 353.0, 354.0, 354.0, 354.0, 354.0, 353.0],
