{
  "AcquisitionMatrixPE": 104,
  "AcquisitionNumber": 1,
  "AcquisitionTime": "12:41:58.910000",
  "BandwidthPerPixelPhaseEncode": 43.054,
  "BaseResolution": 104,
  "CoilString": "C:E1_2",
  "ConversionSoftware": "dcm2niix",
  "ConversionSoftwareVersion": "v1.0.20191031",
  "DerivedVendorReportedEchoSpacing": 0.000669999,
  "DeviceSerialNumber": "18932",
  "DwellTime": 2.8e-06,
  "EchoTime": 0.02,
  "EffectiveEchoSpacing": 0.000223333,
  "FlipAngle": 30,
  "ImageComments": "Unaliased_MB2_PE2",
  "ImageOrientationPatientDICOM": [1, 0, 0, 0, 0.992966, -0.118404],
  "ImageType": [
    "ORIGINAL",
    "PRIMARY",
    "M",
    "MB",
    "ND",
    "MOSAIC"
],
  "ImagingFrequency": 297.229,
  "InPlanePhaseEncodingDirectionDICOM": "COL",
  "InstitutionAddress": "Richmond_Street_North_1151_London_409EF2_Ontario_CA_N6A_5B7",
  "InstitutionName": "Robarts_Reserch_Institute",
  "InstitutionalDepartmentName": "Department",
  "MRAcquisitionType": "2D",
  "MagneticFieldStrength": 6.98,
  "Manufacturer": "Siemens",
  "ManufacturersModelName": "Investigational_Device_7T",
  "Modality": "MR",
  "MultibandAccelerationFactor": 2,
  "ParallelReductionFactorInPlane": 3,
  "PartialFourier": 0.875,
  "PatientPosition": "HFS",
  "PercentPhaseFOV": 100,
  "PhaseEncodingDirection": "j-",
  "PhaseEncodingSteps": 91,
  "PhaseResolution": 1,
  "PixelBandwidth": 1717,
  "ProcedureStepDescription": "Diedrichsen_SeqRep4",
  "ProtocolName": "mbep2d_bold_mb2_p3_AP_2iso",
  "PulseSequenceDetails": "%CustomerSeq%_cmrr_mbep2d_bold",
  "ReceiveCoilName": "CFMM_8Tx32Rx",
  "ReconMatrixPE": 104,
  "RefLinesPE": 36,
  "RepetitionTime": 1,
  "ScanOptions": "PFP_FS",
  "ScanningSequence": "EP",
  "SequenceName": "epfid2d1_104",
  "SequenceVariant": "SK_SS",
  "SeriesDescription": "mbep2d_bold_mb2_p3_AP_2iso",
  "SeriesNumber": 19,
  "ShimSetting": [5, 2050, 86, 1698, -41, 218, -27, -187],
  "SliceThickness": 2,
  "SliceTiming": [0, 0.2275, 0.455, 0.6825, 0.9125, 0.135, 0.365, 0.5925, 0.82, 0.045, 0.2725, 0.5, 0.73, 0.9575, 0.1825, 0.41, 0.6375, 0.865, 0.09, 0.3175, 0.5475, 0.775, 0, 0.2275, 0.455, 0.6825, 0.9125, 0.135, 0.365, 0.5925, 0.82, 0.045, 0.2725, 0.5, 0.73, 0.9575, 0.1825, 0.41, 0.6375, 0.865, 0.09, 0.3175, 0.5475, 0.775],
  "SoftwareVersions": "syngo_MR_B17",
  "SpacingBetweenSlices": 2,
  "StationName": "MASTER",
  "TaskName": "dsp",
  "TotalReadoutTime": 0.0230033,
  "TxRefAmp": 120,
  "dcmmeta_affine": [
    [-2.0, 0.0, 0.0, 106.1791763305664],
    [0.0, 1.9859310388565063, -0.2368079274892807, -112.17391204833984],
    [0.0, 0.2368079274892807, 1.9859310388565063, -31.579612731933594],
    [0.0, 0.0, 0.0, 1.0]
],
  "dcmmeta_reorient_transform": [
    [0.0, -1.0, 0.0, 103.0],
    [1.0, 0.0, 0.0, 0.0],
    [0.0, 0.0, 1.0, 0.0],
    [0.0, 0.0, 0.0, 1.0]
],
  "dcmmeta_shape": [104, 104, 44, 330],
  "dcmmeta_slice_dim": 2,
  "dcmmeta_version": 0.6,
  "global": {
    "const": {
      "AcquisitionMatrix": [104, 0, 0, 104],
      "AngioFlag": "N",
      "BitsAllocated": 16,
      "BitsStored": 12,
      "Columns": 728,
      "EchoNumbers": 1,
      "EchoTime": 20.0,
      "EchoTrainLength": 1,
      "FlipAngle": 30.0,
      "HighBit": 11,
      "ImageOrientationPatient": [1.0, 0.0, 0.0, 0.0, 0.99296550822323, -0.1184039673279],
      "ImagePositionPatient": [-730.1791768074, -711.98746294641, 66.695679233359],
      "ImageType": [
        "ORIGINAL",
        "PRIMARY",
        "M",
        "MB",
        "ND",
        "MOSAIC"
],
      "ImagedNucleus": "1H",
      "ImagingFrequency": 297.228992,
      "InPlanePhaseEncodingDirection": "COL",
      "MRAcquisitionType": "2D",
      "MagneticFieldStrength": 6.98,
      "Manufacturer": "SIEMENS",
      "ManufacturerModelName": "Investigational_Device_7T",
      "Modality": "MR",
      "NumberOfAverages": 1.0,
      "NumberOfPhaseEncodingSteps": 91,
      "PercentPhaseFieldOfView": 100.0,
      "PercentSampling": 100.0,
      "PerformedProcedureStepStartTime": "120509.234000",
      "PhotometricInterpretation": "MONOCHROME2",
      "PixelBandwidth": 1717.0,
      "PixelRepresentation": 0,
      "PixelSpacing": [2.0, 2.0],
      "ProtocolName": "mbep2d_bold_mb2_p3_AP 2iso",
      "RepetitionTime": 1000.0,
      "Rows": 728,
      "SAR": 0.0,
      "SamplesPerPixel": 1,
      "ScanOptions": [
        "PFP",
        "FS"
],
      "ScanningSequence": "EP",
      "SequenceName": "epfid2d1_104",
      "SequenceVariant": [
        "SK",
        "SS"
],
      "SeriesDescription": "mbep2d_bold_mb2_p3_AP 2iso",
      "SeriesNumber": 19,
      "SeriesTime": "124236.453000",
      "SliceLocation": -18.075631274307,
      "SliceThickness": 2.0,
      "SmallestImagePixelValue": 0,
      "SoftwareVersions": "syngo MR B17",
      "SpacingBetweenSlices": 1.9999999835174,
      "SpecificCharacterSet": "ISO_IR 100",
      "StudyID": "1",
      "StudyTime": "120509.171000",
      "TransmitCoilName": "CFMM_8Tx32Rx",
      "VariableFlipAngleFlag": "N",
      "WindowCenterWidthExplanation": "Algo1",
      "dBdt": 0.0},
    "slices": {}
  },
  "time": {
    "samples": {
      "AcquisitionNumber": [1, 2, 3, 4, 5, 6, 7, 8, 9, 10, 11, 12, 13, 14, 15, 16, 17, 18, 19, 20, 21, 22, 23, 24, 25, 26, 27, 28, 29, 30, 31, 32, 33, 34, 35, 36, 37, 38, 39, 40, 41, 42, 43, 44, 45, 46, 47, 48, 49, 50, 51, 52, 53, 54, 55, 56, 57, 58, 59, 60, 61, 62, 63, 64, 65, 66, 67, 68, 69, 70, 71, 72, 73, 74, 75, 76, 77, 78, 79, 80, 81, 82, 83, 84, 85, 86, 87, 88, 89, 90, 91, 92, 93, 94, 95, 96, 97, 98, 99, 100, 101, 102, 103, 104, 105, 106, 107, 108, 109, 110, 111, 112, 113, 114, 115, 116, 117, 118, 119, 120, 121, 122, 123, 124, 125, 126, 127, 128, 129, 130, 131, 132, 133, 134, 135, 136, 137, 138, 139, 140, 141, 142, 143, 144, 145, 146, 147, 148, 149, 150, 151, 152, 153, 154, 155, 156, 157, 158, 159, 160, 161, 162, 163, 164, 165, 166, 167, 168, 169, 170, 171, 172, 173, 174, 175, 176, 177, 178, 179, 180, 181, 182, 183, 184, 185, 186, 187, 188, 189, 190, 191, 192, 193, 194, 195, 196, 197, 198, 199, 200, 201, 202, 203, 204, 205, 206, 207, 208, 209, 210, 211, 212, 213, 214, 215, 216, 217, 218, 219, 220, 221, 222, 223, 224, 225, 226, 227, 228, 229, 230, 231, 232, 233, 234, 235, 236, 237, 238, 239, 240, 241, 242, 243, 244, 245, 246, 247, 248, 249, 250, 251, 252, 253, 254, 255, 256, 257, 258, 259, 260, 261, 262, 263, 264, 265, 266, 267, 268, 269, 270, 271, 272, 273, 274, 275, 276, 277, 278, 279, 280, 281, 282, 283, 284, 285, 286, 287, 288, 289, 290, 291, 292, 293, 294, 295, 296, 297, 298, 299, 300, 301, 302, 303, 304, 305, 306, 307, 308, 309, 310, 311, 312, 313, 314, 315, 316, 317, 318, 319, 320, 321, 322, 323, 324, 325, 326, 327, 328, 329, 330],
      "AcquisitionTime": ["124158.910000", "124159.912500", "124200.917500", "124201.922500", "124202.925000", "124203.930000", "124204.932500", "124205.937500", "124206.942500", "124207.945000", "124208.950000", "124209.952500", "124210.957500", "124211.962500", "124212.965000", "124213.970000", "124214.972500", "124215.977500", "124216.982500", "124217.985000", "124218.990000", "124219.992500", "124220.997500", "124222.002500", "124223.005000", "124224.010000", "124225.015000", "124226.017500", "124227.022500", "124228.025000", "124229.030000", "124230.035000", "124231.037500", "124232.042500", "124233.045000", "124234.050000", "124235.055000", "124236.057500", "124237.062500", "124238.065000", "124239.070000", "124240.075000", "124241.077500", "124242.082500", "124243.085000", "124244.090000", "124245.095000", "124246.097500", "124247.102500", "124248.105000", "124249.110000", "124250.115000", "124251.117500", "124252.122500", "124253.125000", "124254.130000", "124255.135000", "124256.137500", "124257.142500", "124258.147500", "124259.150000", "124300.155000", "124301.157500", "124302.162500", "124303.167500", "124304.170000", "124305.175000", "124306.177500", "124307.182500", "124308.187500", "124309.190000", "124310.195000", "124311.197500", "124312.202500", "124313.207500", "124314.210000", "124315.215000", "124316.217500", "124317.222500", "124318.227500", "124319.230000", "124320.235000", "124321.237500", "124322.242500", "124323.247500", "124324.250000", "124325.255000", "124326.257500", "124327.262500", "124328.267500", "124329.270000", "124330.275000", "124331.280000", "124332.282500", "124333.287500", "124334.290000", "124335.295000", "124336.300000", "124337.302500", "124338.307500", "124339.310000", "124340.315000", "124341.320000", "124342.322500", "124343.327500", "124344.330000", "124345.335000", "124346.340000", "124347.342500", "124348.347500", "124349.350000", "124350.355000", "124351.360000", "124352.362500", "124353.367500", "124354.370000", "124355.375000", "124356.380000", "124357.382500", "124358.387500", "124359.392500", "124400.395000", "124401.400000", "124402.402500", "124403.407500", "124404.412500", "124405.415000", "124406.420000", "124407.422500", "124408.427500", "124409.432500", "124410.435000", "124411.440000", "124412.442500", "124413.447500", "124414.452500", "124415.455000", "124416.460000", "124417.462500", "124418.467500", "124419.472500", "124420.475000", "124421.480000", "124422.482500", "124423.487500", "124424.492500", "124425.495000", "124426.500000", "124427.502500", "124428.507500", "124429.512500", "124430.515000", "124431.520000", "124432.525000", "124433.527500", "124434.532500", "124435.535000", "124436.540000", "124437.545000", "124438.547500", "124439.552500", "124440.555000", "124441.560000", "124442.565000", "124443.567500", "124444.572500", "124445.575000", "124446.580000", "124447.585000", "124448.587500", "124449.592500", "124450.595000", "124451.600000", "124452.605000", "124453.607500", "124454.612500", "124455.615000", "124456.620000", "124457.625000", "124458.627500", "124459.632500", "124500.635000", "124501.640000", "124502.645000", "124503.647500", "124504.652500", "124505.657500", "124506.660000", "124507.665000", "124508.667500", "124509.672500", "124510.677500", "124511.680000", "124512.685000", "124513.687500", "124514.692500", "124515.697500", "124516.700000", "124517.705000", "124518.707500", "124519.712500", "124520.717500", "124521.720000", "124522.725000", "124523.727500", "124524.732500", "124525.737500", "124526.740000", "124527.745000", "124528.747500", "124529.752500", "124530.757500", "124531.760000", "124532.765000", "124533.770000", "124534.772500", "124535.777500", "124536.780000", "124537.785000", "124538.790000", "124539.792500", "124540.797500", "124541.800000", "124542.805000", "124543.810000", "124544.812500", "124545.817500", "124546.820000", "124547.825000", "124548.830000", "124549.832500", "124550.837500", "124551.840000", "124552.845000", "124553.850000", "124554.852500", "124555.857500", "124556.860000", "124557.865000", "124558.870000", "124559.872500", "124600.877500", "124601.880000", "124602.885000", "124603.890000", "124604.892500", "124605.897500", "124606.902500", "124607.905000", "124608.910000", "124609.912500", "124610.917500", "124611.922500", "124612.925000", "124613.930000", "124614.932500", "124615.937500", "124616.942500", "124617.945000", "124618.950000", "124619.952500", "124620.957500", "124621.962500", "124622.965000", "124623.970000", "124624.972500", "124625.977500", "124626.982500", "124627.985000", "124628.990000", "124629.992500", "124630.997500", "124632.002500", "124633.005000", "124634.010000", "124635.015000", "124636.017500", "124637.022500", "124638.025000", "124639.030000", "124640.035000", "124641.037500", "124642.042500", "124643.045000", "124644.050000", "124645.055000", "124646.057500", "124647.062500", "124648.065000", "124649.070000", "124650.075000", "124651.077500", "124652.082500", "124653.085000", "124654.090000", "124655.095000", "124656.097500", "124657.102500", "124658.105000", "124659.110000", "124700.115000", "124701.117500", "124702.122500", "124703.125000", "124704.130000", "124705.135000", "124706.137500", "124707.142500", "124708.147500", "124709.150000", "124710.155000", "124711.157500", "124712.162500", "124713.167500", "124714.170000", "124715.175000", "124716.177500", "124717.182500", "124718.187500", "124719.190000", "124720.195000", "124721.197500", "124722.202500", "124723.207500", "124724.210000", "124725.215000", "124726.217500", "124727.222500", "124728.227500", "124729.230000"],
      "ContentTime": ["124236.453000", "124236.468000", "124236.468000", "124236.468000", "124236.468000", "124236.468000", "124236.468000", "124236.484000", "124236.484000", "124236.484000", "124236.484000", "124236.484000", "124236.484000", "124236.484000", "124236.500000", "124236.500000", "124236.500000", "124236.500000", "124236.500000", "124236.500000", "124236.515000", "124236.515000", "124236.515000", "124236.515000", "124236.515000", "124236.515000", "124236.531000", "124236.531000", "124236.531000", "124236.531000", "124236.546000", "124236.546000", "124236.546000", "124236.546000", "124236.546000", "124236.546000", "124236.546000", "124256.421000", "124256.421000", "124256.437000", "124256.437000", "124256.437000", "124256.437000", "124256.437000", "124256.437000", "124256.437000", "124256.453000", "124256.453000", "124256.453000", "124256.453000", "124256.453000", "124256.453000", "124256.468000", "124256.468000", "124256.468000", "124256.468000", "124256.468000", "124316.421000", "124316.421000", "124316.421000", "124316.437000", "124316.437000", "124316.437000", "124316.437000", "124316.437000", "124316.437000", "124316.437000", "124316.437000", "124316.453000", "124316.453000", "124316.453000", "124316.453000", "124316.453000", "124316.453000", "124316.453000", "124316.468000", "124316.468000", "124336.421000", "124336.421000", "124336.421000", "124336.437000", "124336.437000", "124336.437000", "124336.437000", "124336.437000", "124336.437000", "124336.437000", "124336.437000", "124336.453000", "124336.453000", "124336.453000", "124336.453000", "124336.453000", "124336.453000", "124336.453000", "124336.468000", "124336.468000", "124356.421000", "124356.421000", "124356.421000", "124356.437000", "124356.437000", "124356.437000", "124356.437000", "124356.437000", "124356.437000", "124356.437000", "124356.453000", "124356.453000", "124356.453000", "124356.453000", "124356.453000", "124356.453000", "124356.453000", "124356.453000", "124356.468000", "124356.468000", "124416.421000", "124416.421000", "124416.421000", "124416.437000", "124416.437000", "124416.437000", "124416.437000", "124416.437000", "124416.437000", "124416.437000", "124416.437000", "124416.453000", "124416.453000", "124416.453000", "124416.453000", "124416.453000", "124416.453000", "124416.453000", "124416.468000", "124416.468000", "124456.421000", "124456.421000", "124456.421000", "124456.437000", "124456.437000", "124456.437000", "124456.437000", "124456.437000", "124456.453000", "124456.453000", "124456.453000", "124456.453000", "124456.468000", "124456.468000", "124456.468000", "124456.468000", "124456.468000", "124456.468000", "124456.484000", "124456.484000", "124456.484000", "124456.484000", "124456.484000", "124456.484000", "124456.484000", "124456.484000", "124456.500000", "124456.500000", "124456.500000", "124456.500000", "124456.500000", "124456.500000", "124456.500000", "124456.515000", "124456.515000", "124456.515000", "124456.515000", "124456.515000", "124456.531000", "124456.531000", "124516.421000", "124516.421000", "124516.437000", "124516.437000", "124516.437000", "124516.437000", "124516.437000", "124516.437000", "124516.437000", "124516.453000", "124516.453000", "124516.453000", "124516.453000", "124516.453000", "124516.453000", "124516.453000", "124516.468000", "124516.468000", "124516.468000", "124516.468000", "124536.421000", "124536.421000", "124536.421000", "124536.437000", "124536.437000", "124536.437000", "124536.437000", "124536.437000", "124536.453000", "124536.453000", "124536.453000", "124536.453000", "124536.453000", "124536.453000", "124536.468000", "124536.468000", "124536.468000", "124536.468000", "124536.468000", "124536.484000", "124556.421000", "124556.421000", "124556.421000", "124556.437000", "124556.437000", "124556.437000", "124556.437000", "124556.437000", "124556.437000", "124556.437000", "124556.453000", "124556.453000", "124556.453000", "124556.453000", "124556.453000", "124556.453000", "124556.453000", "124556.453000", "124556.468000", "124556.468000", "124616.421000", "124616.421000", "124616.421000", "124616.437000", "124616.437000", "124616.437000", "124616.437000", "124616.437000", "124616.437000", "124616.437000", "124616.437000", "124616.453000", "124616.453000", "124616.453000", "124616.453000", "124616.453000", "124616.453000", "124616.453000", "124616.468000", "124616.468000", "124636.421000", "124636.421000", "124636.421000", "124636.437000", "124636.437000", "124636.437000", "124636.437000", "124636.437000", "124636.437000", "124636.437000", "124636.437000", "124636.453000", "124636.453000", "124636.453000", "124636.453000", "124636.453000", "124636.453000", "124636.453000", "124636.468000", "124636.468000", "124656.421000", "124656.421000", "124656.421000", "124656.437000", "124656.437000", "124656.437000", "124656.437000", "124656.437000", "124656.437000", "124656.437000", "124656.453000", "124656.453000", "124656.453000", "124656.453000", "124656.453000", "124656.453000", "124656.453000", "124656.453000", "124656.468000", "124656.468000", "124716.421000", "124716.421000", "124716.437000", "124716.437000", "124716.437000", "124716.437000", "124716.437000", "124716.437000", "124716.453000", "124716.453000", "124716.453000", "124716.453000", "124716.453000", "124716.453000", "124716.453000", "124716.468000", "124716.468000", "124716.468000", "124716.468000", "124716.468000", "124734.406000", "124734.406000", "124734.406000", "124734.406000", "124734.406000", "124734.406000", "124734.421000", "124734.421000", "124734.421000", "124734.421000", "124734.421000", "124734.421000", "124734.421000"],
      "InstanceCreationTime": ["124236.453000", "124236.468000", "124236.468000", "124236.468000", "124236.468000", "124236.468000", "124236.468000", "124236.484000", "124236.484000", "124236.484000", "124236.484000", "124236.484000", "124236.484000", "124236.484000", "124236.500000", "124236.500000", "124236.500000", "124236.500000", "124236.500000", "124236.500000", "124236.515000", "124236.515000", "124236.515000", "124236.515000", "124236.515000", "124236.515000", "124236.531000", "124236.531000", "124236.531000", "124236.531000", "124236.546000", "124236.546000", "124236.546000", "124236.546000", "124236.546000", "124236.546000", "124236.546000", "124256.421000", "124256.421000", "124256.437000", "124256.437000", "124256.437000", "124256.437000", "124256.437000", "124256.437000", "124256.437000", "124256.453000", "124256.453000", "124256.453000", "124256.453000", "124256.453000", "124256.453000", "124256.468000", "124256.468000", "124256.468000", "124256.468000", "124256.468000", "124316.421000", "124316.421000", "124316.421000", "124316.437000", "124316.437000", "124316.437000", "124316.437000", "124316.437000", "124316.437000", "124316.437000", "124316.437000", "124316.453000", "124316.453000", "124316.453000", "124316.453000", "124316.453000", "124316.453000", "124316.453000", "124316.468000", "124316.468000", "124336.421000", "124336.421000", "124336.421000", "124336.437000", "124336.437000", "124336.437000", "124336.437000", "124336.437000", "124336.437000", "124336.437000", "124336.437000", "124336.453000", "124336.453000", "124336.453000", "124336.453000", "124336.453000", "124336.453000", "124336.453000", "124336.468000", "124336.468000", "124356.421000", "124356.421000", "124356.421000", "124356.437000", "124356.437000", "124356.437000", "124356.437000", "124356.437000", "124356.437000", "124356.437000", "124356.453000", "124356.453000", "124356.453000", "124356.453000", "124356.453000", "124356.453000", "124356.453000", "124356.453000", "124356.468000", "124356.468000", "124416.421000", "124416.421000", "124416.421000", "124416.437000", "124416.437000", "124416.437000", "124416.437000", "124416.437000", "124416.437000", "124416.437000", "124416.437000", "124416.453000", "124416.453000", "124416.453000", "124416.453000", "124416.453000", "124416.453000", "124416.453000", "124416.468000", "124416.468000", "124456.421000", "124456.421000", "124456.421000", "124456.437000", "124456.437000", "124456.437000", "124456.437000", "124456.437000", "124456.453000", "124456.453000", "124456.453000", "124456.453000", "124456.468000", "124456.468000", "124456.468000", "124456.468000", "124456.468000", "124456.468000", "124456.484000", "124456.484000", "124456.484000", "124456.484000", "124456.484000", "124456.484000", "124456.484000", "124456.484000", "124456.500000", "124456.500000", "124456.500000", "124456.500000", "124456.500000", "124456.500000", "124456.500000", "124456.515000", "124456.515000", "124456.515000", "124456.515000", "124456.515000", "124456.531000", "124456.531000", "124516.421000", "124516.421000", "124516.437000", "124516.437000", "124516.437000", "124516.437000", "124516.437000", "124516.437000", "124516.437000", "124516.453000", "124516.453000", "124516.453000", "124516.453000", "124516.453000", "124516.453000", "124516.453000", "124516.468000", "124516.468000", "124516.468000", "124516.468000", "124536.421000", "124536.421000", "124536.421000", "124536.437000", "124536.437000", "124536.437000", "124536.437000", "124536.437000", "124536.453000", "124536.453000", "124536.453000", "124536.453000", "124536.453000", "124536.453000", "124536.468000", "124536.468000", "124536.468000", "124536.468000", "124536.468000", "124536.484000", "124556.421000", "124556.421000", "124556.421000", "124556.437000", "124556.437000", "124556.437000", "124556.437000", "124556.437000", "124556.437000", "124556.437000", "124556.453000", "124556.453000", "124556.453000", "124556.453000", "124556.453000", "124556.453000", "124556.453000", "124556.453000", "124556.468000", "124556.468000", "124616.421000", "124616.421000", "124616.421000", "124616.437000", "124616.437000", "124616.437000", "124616.437000", "124616.437000", "124616.437000", "124616.437000", "124616.437000", "124616.453000", "124616.453000", "124616.453000", "124616.453000", "124616.453000", "124616.453000", "124616.453000", "124616.468000", "124616.468000", "124636.421000", "124636.421000", "124636.421000", "124636.437000", "124636.437000", "124636.437000", "124636.437000", "124636.437000", "124636.437000", "124636.437000", "124636.437000", "124636.453000", "124636.453000", "124636.453000", "124636.453000", "124636.453000", "124636.453000", "124636.453000", "124636.468000", "124636.468000", "124656.421000", "124656.421000", "124656.421000", "124656.437000", "124656.437000", "124656.437000", "124656.437000", "124656.437000", "124656.437000", "124656.437000", "124656.453000", "124656.453000", "124656.453000", "124656.453000", "124656.453000", "124656.453000", "124656.453000", "124656.453000", "124656.468000", "124656.468000", "124716.421000", "124716.421000", "124716.437000", "124716.437000", "124716.437000", "124716.437000", "124716.437000", "124716.437000", "124716.453000", "124716.453000", "124716.453000", "124716.453000", "124716.453000", "124716.453000", "124716.453000", "124716.468000", "124716.468000", "124716.468000", "124716.468000", "124716.468000", "124734.406000", "124734.406000", "124734.406000", "124734.406000", "124734.406000", "124734.406000", "124734.421000", "124734.421000", "124734.421000", "124734.421000", "124734.421000", "124734.421000", "124734.421000"],
      "InstanceNumber": [1, 2, 3, 4, 5, 6, 7, 8, 9, 10, 11, 12, 13, 14, 15, 16, 17, 18, 19, 20, 21, 22, 23, 24, 25, 26, 27, 28, 29, 30, 31, 32, 33, 34, 35, 36, 37, 38, 39, 40, 41, 42, 43, 44, 45, 46, 47, 48, 49, 50, 51, 52, 53, 54, 55, 56, 57, 58, 59, 60, 61, 62, 63, 64, 65, 66, 67, 68, 69, 70, 71, 72, 73, 74, 75, 76, 77, 78, 79, 80, 81, 82, 83, 84, 85, 86, 87, 88, 89, 90, 91, 92, 93, 94, 95, 96, 97, 98, 99, 100, 101, 102, 103, 104, 105, 106, 107, 108, 109, 110, 111, 112, 113, 114, 115, 116, 117, 118, 119, 120, 121, 122, 123, 124, 125, 126, 127, 128, 129, 130, 131, 132, 133, 134, 135, 136, 137, 138, 139, 140, 141, 142, 143, 144, 145, 146, 147, 148, 149, 150, 151, 152, 153, 154, 155, 156, 157, 158, 159, 160, 161, 162, 163, 164, 165, 166, 167, 168, 169, 170, 171, 172, 173, 174, 175, 176, 177, 178, 179, 180, 181, 182, 183, 184, 185, 186, 187, 188, 189, 190, 191, 192, 193, 194, 195, 196, 197, 198, 199, 200, 201, 202, 203, 204, 205, 206, 207, 208, 209, 210, 211, 212, 213, 214, 215, 216, 217, 218, 219, 220, 221, 222, 223, 224, 225, 226, 227, 228, 229, 230, 231, 232, 233, 234, 235, 236, 237, 238, 239, 240, 241, 242, 243, 244, 245, 246, 247, 248, 249, 250, 251, 252, 253, 254, 255, 256, 257, 258, 259, 260, 261, 262, 263, 264, 265, 266, 267, 268, 269, 270, 271, 272, 273, 274, 275, 276, 277, 278, 279, 280, 281, 282, 283, 284, 285, 286, 287, 288, 289, 290, 291, 292, 293, 294, 295, 296, 297, 298, 299, 300, 301, 302, 303, 304, 305, 306, 307, 308, 309, 310, 311, 312, 313, 314, 315, 316, 317, 318, 319, 320, 321, 322, 323, 324, 325, 326, 327, 328, 329, 330],
      "LargestImagePixelValue": [2214, 2096, 2053, 2099, 2075, 2071, 2033, 2113, 2047, 2010, 2035, 2002, 2045, 2013, 2112, 2088, 2042, 2045, 2067, 2064, 2035, 1996, 2073, 2036, 2050, 2105, 2038, 2037, 2042, 2041, 2054, 1987, 2048, 2074, 2082, 2087, 2077, 2057, 2051, 2043, 2049, 2013, 2082, 2087, 2082, 2075, 2033, 2053, 2070, 1970, 2113, 2086, 2079, 2007, 2026, 2031, 2048, 2084, 2044, 2103, 2067, 2072, 2044, 2059, 2070, 2122, 2057, 2086, 2070, 2048, 2010, 2078, 2050, 2028, 2044, 2081, 2033, 2046, 2025, 2001, 2073, 1935, 1985, 1977, 1951, 2021, 2010, 1972, 2028, 1964, 1961, 1972, 2024, 2083, 2100, 2103, 2045, 2065, 2086, 2026, 2069, 2057, 2029, 2102, 2040, 2021, 2075, 2098, 2132, 2062, 2133, 2059, 2034, 2059, 2063, 2068, 2090, 2098, 2091, 2034, 2102, 2077, 2098, 2097, 2070, 2106, 2101, 2058, 2073, 2067, 2105, 2077, 2095, 2106, 2098, 2100, 2115, 2151, 2102, 2102, 2087, 2108, 2126, 2098, 2124, 2139, 2129, 2087, 2055, 2059, 2079, 2135, 2081, 2072, 1979, 1912, 1947, 1891, 1985, 2033, 2020, 2015, 2020, 2035, 2083, 2042, 1900, 1928, 1937, 2018, 1992, 1952, 1994, 1968, 1999, 2060, 2025, 1980, 2026, 2034, 1997, 2083, 2082, 2055, 2085, 2113, 2039, 2084, 2074, 2023, 2102, 2124, 2052, 2066, 2122, 2063, 2049, 2114, 2066, 2122, 2085, 2089, 2041, 2090, 2009, 2113, 2095, 2087, 2051, 2054, 2117, 2073, 2112, 2053, 2090, 2090, 2029, 2125, 2126, 2060, 2151, 2123, 2112, 2113, 2076, 2043, 2056, 2126, 2070, 2124, 2124, 2070, 2162, 2074, 2109, 2113, 2057, 2047, 2131, 2097, 2119, 2130, 2163, 2160, 2106, 2103, 2055, 2133, 2118, 2096, 2082, 2033, 1962, 2058, 2061, 2047, 2078, 2035, 2071, 2091, 2157, 2125, 2121, 2118, 2094, 2068, 2116, 2143, 2069, 2065, 2143, 2097, 2132, 2077, 2157, 2108, 2090, 2105, 2077, 2044, 2045, 2122, 2032, 2089, 2080, 2021, 2047, 2059, 2019, 2062, 2079, 2101, 2067, 2057, 2061, 2068, 2131, 2074, 2089, 2111, 2074, 2111, 2015, 2081, 2116, 2136, 2079, 2119, 2075, 2083, 2103, 2054, 2086, 2059, 2064, 2068, 2033, 2051, 2049, 2103, 2087, 2030, 2044, 2000, 2068, 2005, 2051, 2048, 2043, 2037],
      "WindowCenter": [434.0, 434.0, 433.0, 431.0, 430.0, 430.0, 430.0, 430.0, 429.0, 428.0, 429.0, 428.0, 430.0, 430.0, 431.0, 431.0, 430.0, 430.0, 430.0, 430.0, 430.0, 429.0, 430.0, 431.0, 430.0, 430.0, 430.0, 430.0, 430.0, 430.0, 430.0, 430.0, 430.0, 431.0, 432.0, 431.0, 430.0, 430.0, 429.0, 428.0, 430.0, 430.0, 430.0, 430.0, 431.0, 432.0, 432.0, 432.0, 431.0, 430.0, 429.0, 429.0, 429.0, 429.0, 430.0, 430.0, 430.0, 429.0, 428.0, 428.0, 429.0, 429.0, 430.0, 430.0, 430.0, 430.0, 428.0, 429.0, 429.0, 430.0, 431.0, 433.0, 433.0, 432.0, 431.0, 430.0, 429.0, 428.0, 428.0, 428.0, 430.0, 430.0, 432.0, 432.0, 432.0, 431.0, 430.0, 429.0, 429.0, 429.0, 429.0, 431.0, 432.0, 431.0, 431.0, 431.0, 430.0, 429.0, 428.0, 428.0, 428.0, 428.0, 428.0, 429.0, 428.0, 428.0, 430.0, 430.0, 430.0, 429.0, 430.0, 430.0, 430.0, 432.0, 432.0, 431.0, 431.0, 430.0, 430.0, 430.0, 430.0, 430.0, 431.0, 432.0, 431.0, 430.0, 430.0, 429.0, 428.0, 429.0, 430.0, 430.0, 430.0, 430.0, 430.0, 430.0, 431.0, 431.0, 431.0, 430.0, 431.0, 431.0, 432.0, 432.0, 431.0, 431.0, 431.0, 432.0, 432.0, 433.0, 433.0, 432.0, 431.0, 431.0, 430.0, 430.0, 432.0, 431.0, 432.0, 431.0, 430.0, 429.0, 430.0, 430.0, 430.0, 430.0, 430.0, 431.0, 432.0, 433.0, 432.0, 431.0, 431.0, 430.0, 431.0, 431.0, 430.0, 430.0, 430.0, 431.0, 431.0, 432.0, 431.0, 431.0, 431.0, 431.0, 430.0, 430.0, 430.0, 429.0, 430.0, 431.0, 430.0, 430.0, 431.0, 431.0, 432.0, 431.0, 431.0, 431.0, 430.0, 429.0, 430.0, 430.0, 429.0, 430.0, 431.0, 430.0, 430.0, 429.0, 430.0, 429.0, 429.0, 430.0, 431.0, 432.0, 431.0, 433.0, 432.0, 432.0, 432.0, 432.0, 430.0, 428.0, 427.0, 428.0, 428.0, 429.0, 429.0, 431.0, 433.0, 433.0, 434.0, 433.0, 432.0, 431.0, 430.0, 430.0, 430.0, 430.0, 431.0, 431.0, 432.0, 432.0, 431.0, 432.0, 431.0, 431.0, 431.0, 431.0, 432.0, 431.0, 431.0, 431.0, 430.0, 430.0, 430.0, 430.0, 430.0, 430.0, 431.0, 431.0, 432.0, 433.0, 433.0, 431.0, 432.0, 430.0, 429.0, 429.0, 430.0, 430.0, 431.0, 431.0, 432.0, 432.0, 432.0, 432.0, 432.0, 433.0, 433.0, 433.0, 432.0, 431.0, 431.0, 431.0, 431.0, 432.0, 432.0, 432.0, 431.0, 431.0, 430.0, 430.0, 430.0, 431.0, 432.0, 432.0, 432.0, 433.0, 433.0, 432.0, 431.0, 432.0, 432.0, 431.0, 430.0, 429.0, 429.0, 430.0, 430.0, 430.0, 431.0, 430.0, 431.0, 431.0, 430.0, 430.0, 430.0, 430.0, 429.0, 430.0, 431.0, 431.0, 431.0, 431.0, 431.0, 431.0, 431.0, 431.0],
