{
  "AcquisitionMatrixPE": 104,
  "AcquisitionNumber": 1,
  "AcquisitionTime": "13:05:45.250000",
  "BandwidthPerPixelPhaseEncode": 43.054,
  "BaseResolution": 104,
  "CoilString": "C:E1_2",
  "ConversionSoftware": "dcm2niix",
  "ConversionSoftwareVersion": "v1.0.20191031",
  "DerivedVendorReportedEchoSpacing": 0.000669999,
  "DeviceSerialNumber": "18932",
  "DwellTime": 2.8e-06,
  "EchoTime": 0.02,
  "EffectiveEchoSpacing": 0.000223333,
  "FlipAngle": 30,
  "ImageComments": "Unaliased_MB2_PE2",
  "ImageOrientationPatientDICOM": [1, 0, 0, 0, 0.992966, -0.118404],
  "ImageType": [
    "ORIGINAL",
    "PRIMARY",
    "M",
    "MB",
    "ND",
    "MOSAIC"
],
  "ImagingFrequency": 297.229,
  "InPlanePhaseEncodingDirectionDICOM": "COL",
  "InstitutionAddress": "Richmond_Street_North_1151_London_409EF2_Ontario_CA_N6A_5B7",
  "InstitutionName": "Robarts_Reserch_Institute",
  "InstitutionalDepartmentName": "Department",
  "MRAcquisitionType": "2D",
  "MagneticFieldStrength": 6.98,
  "Manufacturer": "Siemens",
  "ManufacturersModelName": "Investigational_Device_7T",
  "Modality": "MR",
  "MultibandAccelerationFactor": 2,
  "ParallelReductionFactorInPlane": 3,
  "PartialFourier": 0.875,
  "PatientPosition": "HFS",
  "PercentPhaseFOV": 100,
  "PhaseEncodingDirection": "j-",
  "PhaseEncodingSteps": 91,
  "PhaseResolution": 1,
  "PixelBandwidth": 1717,
  "ProcedureStepDescription": "Diedrichsen_SeqRep4",
  "ProtocolName": "mbep2d_bold_mb2_p3_AP_2iso",
  "PulseSequenceDetails": "%CustomerSeq%_cmrr_mbep2d_bold",
  "ReceiveCoilName": "CFMM_8Tx32Rx",
  "ReconMatrixPE": 104,
  "RefLinesPE": 36,
  "RepetitionTime": 1,
  "ScanOptions": "PFP_FS",
  "ScanningSequence": "EP",
  "SequenceName": "epfid2d1_104",
  "SequenceVariant": "SK_SS",
  "SeriesDescription": "mbep2d_bold_mb2_p3_AP_2iso",
  "SeriesNumber": 28,
  "ShimSetting": [5, 2050, 86, 1698, -41, 218, -27, -187],
  "SliceThickness": 2,
  "SliceTiming": [0, 0.2275, 0.4575, 0.685, 0.9125, 0.1375, 0.365, 0.5925, 0.8225, 0.045, 0.275, 0.5025, 0.73, 0.9575, 0.1825, 0.41, 0.64, 0.8675, 0.0925, 0.32, 0.5475, 0.775, 0, 0.2275, 0.4575, 0.685, 0.9125, 0.1375, 0.365, 0.5925, 0.8225, 0.045, 0.275, 0.5025, 0.73, 0.9575, 0.1825, 0.41, 0.64, 0.8675, 0.0925, 0.32, 0.5475, 0.775],
  "SoftwareVersions": "syngo_MR_B17",
  "SpacingBetweenSlices": 2,
  "StationName": "MASTER",
  "TaskName": "dsp",
  "TotalReadoutTime": 0.0230033,
  "TxRefAmp": 120,
  "dcmmeta_affine": [
    [-2.0, 0.0, 0.0, 106.1791763305664],
    [0.0, 1.9859310388565063, -0.2368079274892807, -112.17391204833984],
    [0.0, 0.2368079274892807, 1.9859310388565063, -31.579612731933594],
    [0.0, 0.0, 0.0, 1.0]
],
  "dcmmeta_reorient_transform": [
    [0.0, -1.0, 0.0, 103.0],
    [1.0, 0.0, 0.0, 0.0],
    [0.0, 0.0, 1.0, 0.0],
    [0.0, 0.0, 0.0, 1.0]
],
  "dcmmeta_shape": [104, 104, 44, 330],
  "dcmmeta_slice_dim": 2,
  "dcmmeta_version": 0.6,
  "global": {
    "const": {
      "AcquisitionMatrix": [104, 0, 0, 104],
      "AngioFlag": "N",
      "BitsAllocated": 16,
      "BitsStored": 12,
      "Columns": 728,
      "EchoNumbers": 1,
      "EchoTime": 20.0,
      "EchoTrainLength": 1,
      "FlipAngle": 30.0,
      "HighBit": 11,
      "ImageOrientationPatient": [1.0, 0.0, 0.0, 0.0, 0.99296550822323, -0.1184039673279],
      "ImagePositionPatient": [-730.1791768074, -711.98746294641, 66.695679233359],
      "ImageType": [
        "ORIGINAL",
        "PRIMARY",
        "M",
        "MB",
        "ND",
        "MOSAIC"
],
      "ImagedNucleus": "1H",
      "ImagingFrequency": 297.228994,
      "InPlanePhaseEncodingDirection": "COL",
      "MRAcquisitionType": "2D",
      "MagneticFieldStrength": 6.98,
      "Manufacturer": "SIEMENS",
      "ManufacturerModelName": "Investigational_Device_7T",
      "Modality": "MR",
      "NumberOfAverages": 1.0,
      "NumberOfPhaseEncodingSteps": 91,
      "PercentPhaseFieldOfView": 100.0,
      "PercentSampling": 100.0,
      "PerformedProcedureStepStartTime": "120509.234000",
      "PhotometricInterpretation": "MONOCHROME2",
      "PixelBandwidth": 1717.0,
      "PixelRepresentation": 0,
      "PixelSpacing": [2.0, 2.0],
      "ProtocolName": "mbep2d_bold_mb2_p3_AP 2iso",
      "RepetitionTime": 1000.0,
      "Rows": 728,
      "SAR": 0.0,
      "SamplesPerPixel": 1,
      "ScanOptions": [
        "PFP",
        "FS"
],
      "ScanningSequence": "EP",
      "SequenceName": "epfid2d1_104",
      "SequenceVariant": [
        "SK",
        "SS"
],
      "SeriesDescription": "mbep2d_bold_mb2_p3_AP 2iso",
      "SeriesNumber": 28,
      "SeriesTime": "130616.453000",
      "SliceLocation": -18.075631274307,
      "SliceThickness": 2.0,
      "SmallestImagePixelValue": 0,
      "SoftwareVersions": "syngo MR B17",
      "SpacingBetweenSlices": 1.9999999835174,
      "SpecificCharacterSet": "ISO_IR 100",
      "StudyID": "1",
      "StudyTime": "120509.171000",
      "TransmitCoilName": "CFMM_8Tx32Rx",
      "VariableFlipAngleFlag": "N",
      "WindowCenterWidthExplanation": "Algo1",
      "dBdt": 0.0},
    "slices": {}
  },
  "time": {
    "samples": {
      "AcquisitionNumber": [1, 2, 3, 4, 5, 6, 7, 8, 9, 10, 11, 12, 13, 14, 15, 16, 17, 18, 19, 20, 21, 22, 23, 24, 25, 26, 27, 28, 29, 30, 31, 32, 33, 34, 35, 36, 37, 38, 39, 40, 41, 42, 43, 44, 45, 46, 47, 48, 49, 50, 51, 52, 53, 54, 55, 56, 57, 58, 59, 60, 61, 62, 63, 64, 65, 66, 67, 68, 69, 70, 71, 72, 73, 74, 75, 76, 77, 78, 79, 80, 81, 82, 83, 84, 85, 86, 87, 88, 89, 90, 91, 92, 93, 94, 95, 96, 97, 98, 99, 100, 101, 102, 103, 104, 105, 106, 107, 108, 109, 110, 111, 112, 113, 114, 115, 116, 117, 118, 119, 120, 121, 122, 123, 124, 125, 126, 127, 128, 129, 130, 131, 132, 133, 134, 135, 136, 137, 138, 139, 140, 141, 142, 143, 144, 145, 146, 147, 148, 149, 150, 151, 152, 153, 154, 155, 156, 157, 158, 159, 160, 161, 162, 163, 164, 165, 166, 167, 168, 169, 170, 171, 172, 173, 174, 175, 176, 177, 178, 179, 180, 181, 182, 183, 184, 185, 186, 187, 188, 189, 190, 191, 192, 193, 194, 195, 196, 197, 198, 199, 200, 201, 202, 203, 204, 205, 206, 207, 208, 209, 210, 211, 212, 213, 214, 215, 216, 217, 218, 219, 220, 221, 222, 223, 224, 225, 226, 227, 228, 229, 230, 231, 232, 233, 234, 235, 236, 237, 238, 239, 240, 241, 242, 243, 244, 245, 246, 247, 248, 249, 250, 251, 252, 253, 254, 255, 256, 257, 258, 259, 260, 261, 262, 263, 264, 265, 266, 267, 268, 269, 270, 271, 272, 273, 274, 275, 276, 277, 278, 279, 280, 281, 282, 283, 284, 285, 286, 287, 288, 289, 290, 291, 292, 293, 294, 295, 296, 297, 298, 299, 300, 301, 302, 303, 304, 305, 306, 307, 308, 309, 310, 311, 312, 313, 314, 315, 316, 317, 318, 319, 320, 321, 322, 323, 324, 325, 326, 327, 328, 329, 330],
      "AcquisitionTime": ["130545.250000", "130546.255000", "130547.257500", "130548.262500", "130549.267500", "130550.270000", "130551.275000", "130552.277500", "130553.282500", "130554.287500", "130555.290000", "130556.295000", "130557.297500", "130558.302500", "130559.307500", "130600.310000", "130601.315000", "130602.317500", "130603.322500", "130604.327500", "130605.330000", "130606.335000", "130607.337500", "130608.342500", "130609.347500", "130610.350000", "130611.355000", "130612.357500", "130613.362500", "130614.367500", "130615.370000", "130616.375000", "130617.380000", "130618.382500", "130619.387500", "130620.390000", "130621.395000", "130622.400000", "130623.402500", "130624.407500", "130625.410000", "130626.415000", "130627.420000", "130628.422500", "130629.427500", "130630.430000", "130631.435000", "130632.440000", "130633.442500", "130634.447500", "130635.450000", "130636.455000", "130637.460000", "130638.462500", "130639.467500", "130640.470000", "130641.475000", "130642.480000", "130643.482500", "130644.487500", "130645.490000", "130646.495000", "130647.500000", "130648.502500", "130649.507500", "130650.512500", "130651.515000", "130652.520000", "130653.522500", "130654.527500", "130655.532500", "130656.535000", "130657.540000", "130658.542500", "130659.547500", "130700.552500", "130701.555000", "130702.560000", "130703.562500", "130704.567500", "130705.572500", "130706.575000", "130707.580000", "130708.582500", "130709.587500", "130710.592500", "130711.595000", "130712.600000", "130713.602500", "130714.607500", "130715.612500", "130716.615000", "130717.620000", "130718.625000", "130719.627500", "130720.632500", "130721.635000", "130722.640000", "130723.645000", "130724.647500", "130725.652500", "130726.655000", "130727.660000", "130728.665000", "130729.667500", "130730.672500", "130731.675000", "130732.680000", "130733.685000", "130734.687500", "130735.692500", "130736.695000", "130737.700000", "130738.705000", "130739.707500", "130740.712500", "130741.715000", "130742.720000", "130743.725000", "130744.727500", "130745.732500", "130746.735000", "130747.740000", "130748.745000", "130749.747500", "130750.752500", "130751.757500", "130752.760000", "130753.765000", "130754.767500", "130755.772500", "130756.777500", "130757.780000", "130758.785000", "130759.787500", "130800.792500", "130801.797500", "130802.800000", "130803.805000", "130804.807500", "130805.812500", "130806.817500", "130807.820000", "130808.825000", "130809.827500", "130810.832500", "130811.837500", "130812.840000", "130813.845000", "130814.847500", "130815.852500", "130816.857500", "130817.860000", "130818.865000", "130819.867500", "130820.872500", "130821.877500", "130822.880000", "130823.885000", "130824.890000", "130825.892500", "130826.897500", "130827.900000", "130828.905000", "130829.910000", "130830.912500", "130831.917500", "130832.920000", "130833.925000", "130834.930000", "130835.932500", "130836.937500", "130837.940000", "130838.945000", "130839.950000", "130840.952500", "130841.957500", "130842.960000", "130843.965000", "130844.970000", "130845.972500", "130846.977500", "130847.980000", "130848.985000", "130849.990000", "130850.992500", "130851.997500", "130853.002500", "130854.005000", "130855.010000", "130856.012500", "130857.017500", "130858.022500", "130859.025000", "130900.030000", "130901.032500", "130902.037500", "130903.042500", "130904.045000", "130905.050000", "130906.052500", "130907.057500", "130908.062500", "130909.065000", "130910.070000", "130911.072500", "130912.077500", "130913.082500", "130914.085000", "130915.090000", "130916.092500", "130917.097500", "130918.102500", "130919.105000", "130920.110000", "130921.112500", "130922.117500", "130923.122500", "130924.125000", "130925.130000", "130926.135000", "130927.137500", "130928.142500", "130929.145000", "130930.150000", "130931.155000", "130932.157500", "130933.162500", "130934.165000", "130935.170000", "130936.175000", "130937.177500", "130938.182500", "130939.185000", "130940.190000", "130941.195000", "130942.197500", "130943.202500", "130944.205000", "130945.210000", "130946.215000", "130947.217500", "130948.222500", "130949.225000", "130950.230000", "130951.235000", "130952.237500", "130953.242500", "130954.247500", "130955.250000", "130956.255000", "130957.257500", "130958.262500", "130959.267500", "131000.270000", "131001.275000", "131002.277500", "131003.282500", "131004.287500", "131005.290000", "131006.295000", "131007.297500", "131008.302500", "131009.307500", "131010.310000", "131011.315000", "131012.317500", "131013.322500", "131014.327500", "131015.330000", "131016.335000", "131017.337500", "131018.342500", "131019.347500", "131020.350000", "131021.355000", "131022.357500", "131023.362500", "131024.367500", "131025.370000", "131026.375000", "131027.380000", "131028.382500", "131029.387500", "131030.390000", "131031.395000", "131032.400000", "131033.402500", "131034.407500", "131035.410000", "131036.415000", "131037.420000", "131038.422500", "131039.427500", "131040.430000", "131041.435000", "131042.440000", "131043.442500", "131044.447500", "131045.450000", "131046.455000", "131047.460000", "131048.462500", "131049.467500", "131050.470000", "131051.475000", "131052.480000", "131053.482500", "131054.487500", "131055.490000", "131056.495000", "131057.500000", "131058.502500", "131059.507500", "131100.512500", "131101.515000", "131102.520000", "131103.522500", "131104.527500", "131105.532500", "131106.535000", "131107.540000", "131108.542500", "131109.547500", "131110.552500", "131111.555000", "131112.560000", "131113.562500", "131114.567500", "131115.572500"],
      "ContentTime": ["130616.453000", "130616.453000", "130616.453000", "130616.453000", "130616.468000", "130616.468000", "130616.468000", "130616.468000", "130616.468000", "130616.468000", "130616.484000", "130616.484000", "130616.484000", "130616.484000", "130616.484000", "130616.484000", "130616.500000", "130616.500000", "130616.500000", "130616.500000", "130616.500000", "130616.500000", "130616.500000", "130616.515000", "130616.515000", "130616.515000", "130616.515000", "130616.515000", "130616.515000", "130616.531000", "130636.421000", "130636.421000", "130636.437000", "130636.437000", "130636.437000", "130636.437000", "130636.437000", "130636.437000", "130636.437000", "130636.453000", "130636.453000", "130636.453000", "130636.453000", "130636.453000", "130636.453000", "130636.453000", "130636.468000", "130636.468000", "130636.468000", "130636.468000", "130656.421000", "130656.421000", "130656.421000", "130656.437000", "130656.437000", "130656.437000", "130656.437000", "130656.437000", "130656.453000", "130656.453000", "130656.453000", "130656.453000", "130656.453000", "130656.453000", "130656.468000", "130656.468000", "130656.468000", "130656.468000", "130656.468000", "130656.468000", "130716.421000", "130716.437000", "130716.437000", "130716.437000", "130716.437000", "130716.437000", "130716.437000", "130716.453000", "130716.453000", "130716.453000", "130716.453000", "130716.453000", "130716.453000", "130716.453000", "130716.468000", "130716.468000", "130716.468000", "130716.468000", "130716.484000", "130716.484000", "130736.421000", "130736.421000", "130736.421000", "130736.437000", "130736.437000", "130736.437000", "130736.453000", "130736.453000", "130736.453000", "130736.453000", "130736.453000", "130736.453000", "130736.453000", "130736.468000", "130736.468000", "130736.468000", "130736.468000", "130736.468000", "130736.468000", "130736.468000", "130756.421000", "130756.421000", "130756.421000", "130756.437000", "130756.437000", "130756.437000", "130756.437000", "130756.437000", "130756.437000", "130756.437000", "130756.437000", "130756.453000", "130756.453000", "130756.453000", "130756.453000", "130756.453000", "130756.453000", "130756.453000", "130756.468000", "130756.468000", "130816.421000", "130816.421000", "130816.421000", "130816.437000", "130816.437000", "130816.437000", "130816.437000", "130816.437000", "130816.453000", "130816.453000", "130816.453000", "130816.453000", "130816.453000", "130816.453000", "130816.453000", "130816.468000", "130816.468000", "130816.468000", "130816.468000", "130816.468000", "130836.421000", "130836.421000", "130836.421000", "130836.437000", "130836.437000", "130836.437000", "130836.453000", "130836.453000", "130836.453000", "130836.453000", "130836.453000", "130836.453000", "130836.468000", "130836.468000", "130836.468000", "130836.468000", "130836.468000", "130836.468000", "130836.468000", "130836.484000", "130856.421000", "130856.421000", "130856.421000", "130856.437000", "130856.437000", "130856.437000", "130856.437000", "130856.437000", "130856.437000", "130856.453000", "130856.453000", "130856.453000", "130856.453000", "130856.453000", "130856.453000", "130856.468000", "130856.468000", "130856.468000", "130856.468000", "130856.468000", "130916.421000", "130916.421000", "130916.421000", "130916.437000", "130916.437000", "130916.437000", "130916.437000", "130916.437000", "130916.437000", "130916.437000", "130916.437000", "130916.453000", "130916.453000", "130916.453000", "130916.453000", "130916.453000", "130916.453000", "130916.453000", "130916.468000", "130916.468000", "130936.421000", "130936.421000", "130936.421000", "130936.437000", "130936.437000", "130936.437000", "130936.437000", "130936.437000", "130936.437000", "130936.437000", "130936.437000", "130936.453000", "130936.453000", "130936.453000", "130936.453000", "130936.453000", "130936.453000", "130936.468000", "130936.468000", "130936.468000", "130956.421000", "130956.421000", "130956.421000", "130956.437000", "130956.437000", "130956.437000", "130956.437000", "130956.437000", "130956.437000", "130956.453000", "130956.453000", "130956.453000", "130956.453000", "130956.453000", "130956.453000", "130956.468000", "130956.468000", "130956.468000", "130956.468000", "130956.468000", "131016.421000", "131016.421000", "131016.421000", "131016.437000", "131016.437000", "131016.437000", "131016.437000", "131016.437000", "131016.453000", "131016.453000", "131016.453000", "131016.453000", "131016.453000", "131016.453000", "131016.453000", "131016.453000", "131016.468000", "131016.468000", "131016.468000", "131016.468000", "131036.421000", "131036.421000", "131036.421000", "131036.437000", "131036.437000", "131036.437000", "131036.437000", "131036.437000", "131036.437000", "131036.453000", "131036.453000", "131036.453000", "131036.453000", "131036.453000", "131036.453000", "131036.468000", "131036.468000", "131036.468000", "131036.468000", "131036.468000", "131056.421000", "131056.421000", "131056.421000", "131056.437000", "131056.437000", "131056.437000", "131056.437000", "131056.437000", "131056.437000", "131056.437000", "131056.437000", "131056.453000", "131056.453000", "131056.453000", "131056.453000", "131056.453000", "131056.453000", "131056.468000", "131056.468000", "131056.468000", "131120.750000", "131120.750000", "131120.750000", "131120.750000", "131120.750000", "131120.750000", "131120.765000", "131120.765000", "131120.765000", "131120.765000", "131120.765000", "131120.765000", "131120.765000", "131120.781000", "131120.781000", "131120.781000", "131120.781000", "131120.781000", "131120.781000", "131120.781000"],
      "InstanceCreationTime": ["130616.453000", "130616.453000", "130616.453000", "130616.453000", "130616.468000", "130616.468000", "130616.468000", "130616.468000", "130616.468000", "130616.468000", "130616.484000", "130616.484000", "130616.484000", "130616.484000", "130616.484000", "130616.484000", "130616.500000", "130616.500000", "130616.500000", "130616.500000", "130616.500000", "130616.500000", "130616.500000", "130616.515000", "130616.515000", "130616.515000", "130616.515000", "130616.515000", "130616.515000", "130616.531000", "130636.421000", "130636.421000", "130636.437000", "130636.437000", "130636.437000", "130636.437000", "130636.437000", "130636.437000", "130636.437000", "130636.453000", "130636.453000", "130636.453000", "130636.453000", "130636.453000", "130636.453000", "130636.453000", "130636.468000", "130636.468000", "130636.468000", "130636.468000", "130656.421000", "130656.421000", "130656.421000", "130656.437000", "130656.437000", "130656.437000", "130656.437000", "130656.437000", "130656.453000", "130656.453000", "130656.453000", "130656.453000", "130656.453000", "130656.453000", "130656.468000", "130656.468000", "130656.468000", "130656.468000", "130656.468000", "130656.468000", "130716.421000", "130716.437000", "130716.437000", "130716.437000", "130716.437000", "130716.437000", "130716.437000", "130716.453000", "130716.453000", "130716.453000", "130716.453000", "130716.453000", "130716.453000", "130716.453000", "130716.468000", "130716.468000", "130716.468000", "130716.468000", "130716.484000", "130716.484000", "130736.421000", "130736.421000", "130736.421000", "130736.437000", "130736.437000", "130736.437000", "130736.453000", "130736.453000", "130736.453000", "130736.453000", "130736.453000", "130736.453000", "130736.453000", "130736.468000", "130736.468000", "130736.468000", "130736.468000", "130736.468000", "130736.468000", "130736.468000", "130756.421000", "130756.421000", "130756.421000", "130756.437000", "130756.437000", "130756.437000", "130756.437000", "130756.437000", "130756.437000", "130756.437000", "130756.437000", "130756.453000", "130756.453000", "130756.453000", "130756.453000", "130756.453000", "130756.453000", "130756.453000", "130756.468000", "130756.468000", "130816.421000", "130816.421000", "130816.421000", "130816.437000", "130816.437000", "130816.437000", "130816.437000", "130816.437000", "130816.453000", "130816.453000", "130816.453000", "130816.453000", "130816.453000", "130816.453000", "130816.453000", "130816.468000", "130816.468000", "130816.468000", "130816.468000", "130816.468000", "130836.421000", "130836.421000", "130836.421000", "130836.437000", "130836.437000", "130836.437000", "130836.453000", "130836.453000", "130836.453000", "130836.453000", "130836.453000", "130836.453000", "130836.468000", "130836.468000", "130836.468000", "130836.468000", "130836.468000", "130836.468000", "130836.468000", "130836.484000", "130856.421000", "130856.421000", "130856.421000", "130856.437000", "130856.437000", "130856.437000", "130856.437000", "130856.437000", "130856.437000", "130856.453000", "130856.453000", "130856.453000", "130856.453000", "130856.453000", "130856.453000", "130856.468000", "130856.468000", "130856.468000", "130856.468000", "130856.468000", "130916.421000", "130916.421000", "130916.421000", "130916.437000", "130916.437000", "130916.437000", "130916.437000", "130916.437000", "130916.437000", "130916.437000", "130916.437000", "130916.453000", "130916.453000", "130916.453000", "130916.453000", "130916.453000", "130916.453000", "130916.453000", "130916.468000", "130916.468000", "130936.421000", "130936.421000", "130936.421000", "130936.437000", "130936.437000", "130936.437000", "130936.437000", "130936.437000", "130936.437000", "130936.437000", "130936.437000", "130936.453000", "130936.453000", "130936.453000", "130936.453000", "130936.453000", "130936.453000", "130936.468000", "130936.468000", "130936.468000", "130956.421000", "130956.421000", "130956.421000", "130956.437000", "130956.437000", "130956.437000", "130956.437000", "130956.437000", "130956.437000", "130956.453000", "130956.453000", "130956.453000", "130956.453000", "130956.453000", "130956.453000", "130956.468000", "130956.468000", "130956.468000", "130956.468000", "130956.468000", "131016.421000", "131016.421000", "131016.421000", "131016.437000", "131016.437000", "131016.437000", "131016.437000", "131016.437000", "131016.453000", "131016.453000", "131016.453000", "131016.453000", "131016.453000", "131016.453000", "131016.453000", "131016.453000", "131016.468000", "131016.468000", "131016.468000", "131016.468000", "131036.421000", "131036.421000", "131036.421000", "131036.437000", "131036.437000", "131036.437000", "131036.437000", "131036.437000", "131036.437000", "131036.453000", "131036.453000", "131036.453000", "131036.453000", "131036.453000", "131036.453000", "131036.468000", "131036.468000", "131036.468000", "131036.468000", "131036.468000", "131056.421000", "131056.421000", "131056.421000", "131056.437000", "131056.437000", "131056.437000", "131056.437000", "131056.437000", "131056.437000", "131056.437000", "131056.437000", "131056.453000", "131056.453000", "131056.453000", "131056.453000", "131056.453000", "131056.453000", "131056.468000", "131056.468000", "131056.468000", "131120.750000", "131120.750000", "131120.750000", "131120.750000", "131120.750000", "131120.750000", "131120.765000", "131120.765000", "131120.765000", "131120.765000", "131120.765000", "131120.765000", "131120.765000", "131120.781000", "131120.781000", "131120.781000", "131120.781000", "131120.781000", "131120.781000", "131120.781000"],
      "InstanceNumber": [1, 2, 3, 4, 5, 6, 7, 8, 9, 10, 11, 12, 13, 14, 15, 16, 17, 18, 19, 20, 21, 22, 23, 24, 25, 26, 27, 28, 29, 30, 31, 32, 33, 34, 35, 36, 37, 38, 39, 40, 41, 42, 43, 44, 45, 46, 47, 48, 49, 50, 51, 52, 53, 54, 55, 56, 57, 58, 59, 60, 61, 62, 63, 64, 65, 66, 67, 68, 69, 70, 71, 72, 73, 74, 75, 76, 77, 78, 79, 80, 81, 82, 83, 84, 85, 86, 87, 88, 89, 90, 91, 92, 93, 94, 95, 96, 97, 98, 99, 100, 101, 102, 103, 104, 105, 106, 107, 108, 109, 110, 111, 112, 113, 114, 115, 116, 117, 118, 119, 120, 121, 122, 123, 124, 125, 126, 127, 128, 129, 130, 131, 132, 133, 134, 135, 136, 137, 138, 139, 140, 141, 142, 143, 144, 145, 146, 147, 148, 149, 150, 151, 152, 153, 154, 155, 156, 157, 158, 159, 160, 161, 162, 163, 164, 165, 166, 167, 168, 169, 170, 171, 172, 173, 174, 175, 176, 177, 178, 179, 180, 181, 182, 183, 184, 185, 186, 187, 188, 189, 190, 191, 192, 193, 194, 195, 196, 197, 198, 199, 200, 201, 202, 203, 204, 205, 206, 207, 208, 209, 210, 211, 212, 213, 214, 215, 216, 217, 218, 219, 220, 221, 222, 223, 224, 225, 226, 227, 228, 229, 230, 231, 232, 233, 234, 235, 236, 237, 238, 239, 240, 241, 242, 243, 244, 245, 246, 247, 248, 249, 250, 251, 252, 253, 254, 255, 256, 257, 258, 259, 260, 261, 262, 263, 264, 265, 266, 267, 268, 269, 270, 271, 272, 273, 274, 275, 276, 277, 278, 279, 280, 281, 282, 283, 284, 285, 286, 287, 288, 289, 290, 291, 292, 293, 294, 295, 296, 297, 298, 299, 300, 301, 302, 303, 304, 305, 306, 307, 308, 309, 310, 311, 312, 313, 314, 315, 316, 317, 318, 319, 320, 321, 322, 323, 324, 325, 326, 327, 328, 329, 330],
      "LargestImagePixelValue": [2081, 2092, 2062, 1997, 2093, 2091, 2053, 2018, 2100, 2085, 2059, 2043, 2124, 2102, 2052, 2062, 2100, 2040, 2062, 2122, 2048, 2056, 2035, 2092, 2072, 2035, 2122, 2039, 2059, 2111, 2035, 2031, 2036, 2060, 2050, 2049, 2031, 2103, 2123, 2069, 2058, 2052, 2047, 2033, 2041, 2013, 2089, 1989, 2026, 2033, 2035, 2101, 2022, 1961, 1954, 2058, 2000, 2001, 2129, 2086, 1959, 2002, 2029, 1981, 2004, 2012, 1982, 1974, 1961, 1999, 1951, 1966, 1937, 2000, 2037, 2002, 1961, 1997, 1931, 1946, 1991, 1924, 1952, 1947, 1932, 1929, 1965, 1934, 1981, 1941, 2002, 1931, 1941, 1979, 1940, 1952, 1989, 1955, 1927, 2000, 1989, 2029, 2038, 1997, 1995, 2020, 2065, 2027, 2066, 2065, 1971, 1947, 2007, 2032, 2030, 1995, 2013, 2047, 2025, 2107, 1981, 1967, 2066, 1990, 1974, 2001, 1943, 1963, 2023, 1995, 1942, 1941, 1970, 1974, 1946, 2013, 1958, 1969, 2014, 1987, 1954, 1974, 2028, 1994, 2018, 1933, 1936, 2014, 1912, 1967, 1934, 1984, 1956, 1979, 1936, 1971, 2007, 1917, 1936, 2008, 1898, 1926, 1965, 1947, 1949, 1944, 1905, 1979, 1915, 1960, 1954, 1939, 1957, 1897, 2030, 1963, 2000, 1972, 1980, 2079, 1985, 1976, 2050, 1933, 1980, 2001, 1946, 1903, 2028, 1889, 1882, 1972, 1906, 1899, 1968, 1992, 1889, 1916, 1969, 1953, 1903, 1910, 2027, 1951, 1946, 1980, 2002, 1931, 1991, 1939, 1902, 1952, 1840, 1934, 1952, 1900, 1826, 1911, 2020, 1942, 1977, 1916, 1870, 1947, 1985, 1909, 1875, 1934, 1883, 1912, 1926, 1968, 1882, 1874, 1991, 1954, 1918, 1918, 1910, 1956, 1923, 1900, 1858, 1888, 1890, 1856, 1887, 1942, 1877, 1892, 1932, 1923, 1881, 1866, 1933, 1980, 1924, 1886, 1953, 1935, 1956, 2022, 1879, 1938, 1985, 1936, 1884, 1928, 1941, 1857, 1885, 1930, 1877, 1933, 1943, 1845, 1949, 1849, 1876, 1983, 1909, 1911, 1946, 1948, 1881, 1907, 1803, 1838, 1916, 1834, 1841, 1859, 1835, 1839, 1949, 1913, 1820, 1878, 1918, 1875, 1879, 1929, 1850, 1893, 1908, 1889, 1896, 2069, 1968, 1946, 1922, 1861, 1936, 1893, 1829, 1887, 1933, 1915, 1877, 1939, 1932, 1869, 1901, 1923, 1904, 1861, 1942, 1914, 1871, 1864],
      "WindowCenter": [430.0, 429.0, 429.0, 429.0, 430.0, 429.0, 429.0, 429.0, 429.0, 428.0, 428.0, 428.0, 427.0, 427.0, 428.0, 428.0, 428.0, 428.0, 429.0, 428.0, 427.0, 428.0, 428.0, 428.0, 428.0, 428.0, 429.0, 428.0, 429.0, 428.0, 428.0, 428.0, 427.0, 427.0, 428.0, 429.0, 430.0, 431.0, 430.0, 430.0, 429.0, 427.0, 426.0, 427.0, 427.0, 426.0, 427.0, 429.0, 430.0, 430.0, 429.0, 428.0, 428.0, 426.0, 426.0, 427.0, 428.0, 428.0, 429.0, 428.0, 428.0, 428.0, 427.0, 426.0, 428.0, 427.0, 427.0, 428.0, 428.0, 428.0, 428.0, 429.0, 428.0, 428.0, 428.0, 427.0, 428.0, 428.0, 428.0, 428.0, 428.0, 427.0, 427.0, 425.0, 425.0, 425.0, 426.0, 428.0, 428.0, 429.0, 428.0, 428.0, 428.0, 427.0, 426.0, 427.0, 427.0, 427.0, 427.0, 427.0, 426.0, 428.0, 428.0, 429.0, 429.0, 429.0, 429.0, 429.0, 429.0, 428.0, 428.0, 427.0, 426.0, 426.0, 427.0, 428.0, 428.0, 428.0, 428.0, 428.0, 428.0, 429.0, 429.0, 429.0, 428.0, 428.0, 426.0, 426.0, 426.0, 427.0, 426.0, 426.0, 426.0, 426.0, 426.0, 427.0, 426.0, 427.0, 427.0, 427.0, 427.0, 428.0, 428.0, 428.0, 429.0, 428.0, 428.0, 428.0, 428.0, 428.0, 427.0, 428.0, 429.0, 430.0, 429.0, 429.0, 428.0, 426.0, 426.0, 425.0, 425.0, 426.0, 425.0, 426.0, 427.0, 428.0, 428.0, 428.0, 427.0, 426.0, 425.0, 424.0, 425.0, 426.0, 428.0, 429.0, 430.0, 429.0, 428.0, 428.0, 427.0, 426.0, 426.0, 426.0, 427.0, 427.0, 426.0, 427.0, 427.0, 426.0, 425.0, 425.0, 425.0, 426.0, 426.0, 426.0, 426.0, 426.0, 426.0, 426.0, 427.0, 428.0, 428.0, 428.0, 428.0, 427.0, 428.0, 428.0, 428.0, 428.0, 428.0, 427.0, 426.0, 426.0, 426.0, 426.0, 426.0, 425.0, 427.0, 427.0, 429.0, 429.0, 428.0, 427.0, 426.0, 425.0, 425.0, 425.0, 425.0, 426.0, 426.0, 426.0, 426.0, 425.0, 427.0, 428.0, 429.0, 429.0, 428.0, 427.0, 426.0, 426.0, 426.0, 425.0, 425.0, 425.0, 425.0, 425.0, 427.0, 428.0, 428.0, 429.0, 428.0, 427.0, 426.0, 427.0, 427.0, 427.0, 429.0, 428.0, 429.0, 430.0, 428.0, 428.0, 427.0, 426.0, 426.0, 426.0, 426.0, 426.0, 426.0, 426.0, 426.0, 427.0, 427.0, 428.0, 428.0, 427.0, 428.0, 427.0, 427.0, 426.0, 426.0, 425.0, 426.0, 426.0, 426.0, 426.0, 427.0, 426.0, 425.0, 425.0, 425.0, 425.0, 425.0, 425.0, 427.0, 427.0, 428.0, 428.0, 428.0, 428.0, 427.0, 428.0, 428.0, 428.0, 428.0, 429.0, 429.0, 430.0, 429.0, 428.0, 428.0, 427.0, 426.0, 426.0, 426.0, 426.0, 427.0, 427.0, 427.0, 426.0, 426.0, 426.0, 425.0, 426.0, 426.0, 426.0, 426.0, 427.0],
