{
  "AcquisitionMatrixPE": 104,
  "AcquisitionNumber": 1,
  "AcquisitionTime": "11:52:20.275000",
  "BandwidthPerPixelPhaseEncode": 43.054,
  "BaseResolution": 104,
  "CoilString": "C:E1_2",
  "ConversionSoftware": "dcm2niix",
  "ConversionSoftwareVersion": "v1.0.20191031",
  "DerivedVendorReportedEchoSpacing": 0.000669999,
  "DeviceSerialNumber": "18932",
  "DwellTime": 2.8e-06,
  "EchoTime": 0.02,
  "EffectiveEchoSpacing": 0.000223333,
  "FlipAngle": 30,
  "ImageComments": "Unaliased_MB2_PE2",
  "ImageOrientationPatientDICOM": [1, 2e-16, 0, -2e-16, 0.965926, -0.258819],
  "ImageType": [
    "ORIGINAL",
    "PRIMARY",
    "M",
    "MB",
    "ND",
    "MOSAIC"
],
  "ImagingFrequency": 297.229,
  "InPlanePhaseEncodingDirectionDICOM": "COL",
  "InstitutionAddress": "Richmond_Street_North_1151_London_409EF2_Ontario_CA_N6A_5B7",
  "InstitutionName": "Robarts_Reserch_Institute",
  "InstitutionalDepartmentName": "Department",
  "MRAcquisitionType": "2D",
  "MagneticFieldStrength": 6.98,
  "Manufacturer": "Siemens",
  "ManufacturersModelName": "Investigational_Device_7T",
  "Modality": "MR",
  "MultibandAccelerationFactor": 2,
  "ParallelReductionFactorInPlane": 3,
  "PartialFourier": 0.875,
  "PatientPosition": "HFS",
  "PercentPhaseFOV": 100,
  "PhaseEncodingDirection": "j-",
  "PhaseEncodingSteps": 91,
  "PhaseResolution": 1,
  "PixelBandwidth": 1717,
  "ProcedureStepDescription": "Diedrichsen_SeqRep4",
  "ProtocolName": "mbep2d_bold_mb2_p3_AP_2iso",
  "PulseSequenceDetails": "%CustomerSeq%_cmrr_mbep2d_bold",
  "ReceiveCoilName": "CFMM_8Tx32Rx",
  "ReconMatrixPE": 104,
  "RefLinesPE": 36,
  "RepetitionTime": 1,
  "ScanOptions": "PFP_FS",
  "ScanningSequence": "EP",
  "SequenceName": "epfid2d1_104",
  "SequenceVariant": "SK_SS",
  "SeriesDescription": "mbep2d_bold_mb2_p3_AP_2iso",
  "SeriesNumber": 17,
  "ShimSetting": [17, 2079, 27, 1472, -66, -420, 219, -110],
  "SliceThickness": 2,
  "SliceTiming": [0, 0.23, 0.4575, 0.685, 0.9125, 0.1375, 0.365, 0.595, 0.8225, 0.0475, 0.275, 0.5025, 0.73, 0.96, 0.1825, 0.4125, 0.64, 0.8675, 0.0925, 0.32, 0.5475, 0.7775, 0, 0.23, 0.4575, 0.685, 0.9125, 0.1375, 0.365, 0.595, 0.8225, 0.0475, 0.275, 0.5025, 0.73, 0.96, 0.1825, 0.4125, 0.64, 0.8675, 0.0925, 0.32, 0.5475, 0.7775],
  "SoftwareVersions": "syngo_MR_B17",
  "SpacingBetweenSlices": 2,
  "StationName": "MASTER",
  "TaskName": "dsp",
  "TotalReadoutTime": 0.0230033,
  "TxRefAmp": 120,
  "dcmmeta_affine": [
    [-2.0, -4.000000067449534e-16, 1.035276159788667e-16, 105.4527816772461],
    [-4.000000067449534e-16, 1.9318516254425049, -0.517638087272644, -109.18914794921875],
    [0.0, 0.517638087272644, 1.9318516254425049, -62.17266082763672],
    [0.0, 0.0, 0.0, 1.0]
],
  "dcmmeta_reorient_transform": [
    [0.0, -1.0, 0.0, 103.0],
    [1.0, 0.0, 0.0, 0.0],
    [0.0, 0.0, 1.0, 0.0],
    [0.0, 0.0, 0.0, 1.0]
],
  "dcmmeta_shape": [104, 104, 44, 330],
  "dcmmeta_slice_dim": 2,
  "dcmmeta_version": 0.6,
  "global": {
    "const": {
      "AcquisitionMatrix": [104, 0, 0, 104],
      "AngioFlag": "N",
      "BitsAllocated": 16,
      "BitsStored": 12,
      "Columns": 728,
      "EchoNumbers": 1,
      "EchoTime": 20.0,
      "EchoTrainLength": 1,
      "FlipAngle": 30.0,
      "HighBit": 11,
      "ImageOrientationPatient": [1.0, 2e-16, 0.0, -2e-16, 0.9659258278573, -0.2588190392498],
      "ImagePositionPatient": [-729.45278453827, -692.52928595953, 152.64714350843],
      "ImageType": [
        "ORIGINAL",
        "PRIMARY",
        "M",
        "MB",
        "ND",
        "MOSAIC"
],
      "ImagedNucleus": "1H",
      "ImagingFrequency": 297.228846,
      "InPlanePhaseEncodingDirection": "COL",
      "MRAcquisitionType": "2D",
      "MagneticFieldStrength": 6.98,
      "Manufacturer": "SIEMENS",
      "ManufacturerModelName": "Investigational_Device_7T",
      "Modality": "MR",
      "NumberOfAverages": 1.0,
      "NumberOfPhaseEncodingSteps": 91,
      "PercentPhaseFieldOfView": 100.0,
      "PercentSampling": 100.0,
      "PerformedProcedureStepStartTime": "112012.734000",
      "PhotometricInterpretation": "MONOCHROME2",
      "PixelBandwidth": 1717.0,
      "PixelRepresentation": 0,
      "PixelSpacing": [2.0, 2.0],
      "ProtocolName": "mbep2d_bold_mb2_p3_AP 2iso",
      "RepetitionTime": 1000.0,
      "Rows": 728,
      "SAR": 0.0,
      "SamplesPerPixel": 1,
      "ScanOptions": [
        "PFP",
        "FS"
],
      "ScanningSequence": "EP",
      "SequenceName": "epfid2d1_104",
      "SequenceVariant": [
        "SK",
        "SS"
],
      "SeriesDescription": "mbep2d_bold_mb2_p3_AP 2iso",
      "SeriesNumber": 17,
      "SeriesTime": "115245.328000",
      "SliceLocation": -31.793945980969,
      "SliceThickness": 2.0,
      "SmallestImagePixelValue": 0,
      "SoftwareVersions": "syngo MR B17",
      "SpacingBetweenSlices": 2.0000000119034,
      "SpecificCharacterSet": "ISO_IR 100",
      "StudyID": "1",
      "StudyTime": "112012.671000",
      "TransmitCoilName": "CFMM_8Tx32Rx",
      "VariableFlipAngleFlag": "N",
      "WindowCenterWidthExplanation": "Algo1",
      "dBdt": 0.0},
    "slices": {}
  },
  "time": {
    "samples": {
      "AcquisitionNumber": [1, 2, 3, 4, 5, 6, 7, 8, 9, 10, 11, 12, 13, 14, 15, 16, 17, 18, 19, 20, 21, 22, 23, 24, 25, 26, 27, 28, 29, 30, 31, 32, 33, 34, 35, 36, 37, 38, 39, 40, 41, 42, 43, 44, 45, 46, 47, 48, 49, 50, 51, 52, 53, 54, 55, 56, 57, 58, 59, 60, 61, 62, 63, 64, 65, 66, 67, 68, 69, 70, 71, 72, 73, 74, 75, 76, 77, 78, 79, 80, 81, 82, 83, 84, 85, 86, 87, 88, 89, 90, 91, 92, 93, 94, 95, 96, 97, 98, 99, 100, 101, 102, 103, 104, 105, 106, 107, 108, 109, 110, 111, 112, 113, 114, 115, 116, 117, 118, 119, 120, 121, 122, 123, 124, 125, 126, 127, 128, 129, 130, 131, 132, 133, 134, 135, 136, 137, 138, 139, 140, 141, 142, 143, 144, 145, 146, 147, 148, 149, 150, 151, 152, 153, 154, 155, 156, 157, 158, 159, 160, 161, 162, 163, 164, 165, 166, 167, 168, 169, 170, 171, 172, 173, 174, 175, 176, 177, 178, 179, 180, 181, 182, 183, 184, 185, 186, 187, 188, 189, 190, 191, 192, 193, 194, 195, 196, 197, 198, 199, 200, 201, 202, 203, 204, 205, 206, 207, 208, 209, 210, 211, 212, 213, 214, 215, 216, 217, 218, 219, 220, 221, 222, 223, 224, 225, 226, 227, 228, 229, 230, 231, 232, 233, 234, 235, 236, 237, 238, 239, 240, 241, 242, 243, 244, 245, 246, 247, 248, 249, 250, 251, 252, 253, 254, 255, 256, 257, 258, 259, 260, 261, 262, 263, 264, 265, 266, 267, 268, 269, 270, 271, 272, 273, 274, 275, 276, 277, 278, 279, 280, 281, 282, 283, 284, 285, 286, 287, 288, 289, 290, 291, 292, 293, 294, 295, 296, 297, 298, 299, 300, 301, 302, 303, 304, 305, 306, 307, 308, 309, 310, 311, 312, 313, 314, 315, 316, 317, 318, 319, 320, 321, 322, 323, 324, 325, 326, 327, 328, 329, 330],
      "AcquisitionTime": ["115220.275000", "115221.280000", "115222.285000", "115223.287500", "115224.292500", "115225.295000", "115226.300000", "115227.305000", "115228.307500", "115229.312500", "115230.315000", "115231.320000", "115232.325000", "115233.327500", "115234.332500", "115235.337500", "115236.340000", "115237.345000", "115238.347500", "115239.352500", "115240.357500", "115241.360000", "115242.365000", "115243.367500", "115244.372500", "115245.377500", "115246.380000", "115247.385000", "115248.387500", "115249.392500", "115250.397500", "115251.400000", "115252.405000", "115253.407500", "115254.412500", "115255.417500", "115256.420000", "115257.425000", "115258.427500", "115259.432500", "115300.437500", "115301.440000", "115302.445000", "115303.450000", "115304.452500", "115305.457500", "115306.460000", "115307.465000", "115308.470000", "115309.472500", "115310.477500", "115311.480000", "115312.485000", "115313.490000", "115314.492500", "115315.497500", "115316.500000", "115317.505000", "115318.510000", "115319.512500", "115320.517500", "115321.520000", "115322.525000", "115323.530000", "115324.532500", "115325.537500", "115326.540000", "115327.545000", "115328.550000", "115329.552500", "115330.557500", "115331.560000", "115332.565000", "115333.570000", "115334.572500", "115335.577500", "115336.582500", "115337.585000", "115338.590000", "115339.592500", "115340.597500", "115341.602500", "115342.605000", "115343.610000", "115344.612500", "115345.617500", "115346.622500", "115347.625000", "115348.630000", "115349.632500", "115350.637500", "115351.642500", "115352.645000", "115353.650000", "115354.652500", "115355.657500", "115356.662500", "115357.665000", "115358.670000", "115359.672500", "115400.677500", "115401.682500", "115402.685000", "115403.690000", "115404.692500", "115405.697500", "115406.702500", "115407.705000", "115408.710000", "115409.715000", "115410.717500", "115411.722500", "115412.725000", "115413.730000", "115414.735000", "115415.737500", "115416.742500", "115417.745000", "115418.750000", "115419.755000", "115420.757500", "115421.762500", "115422.765000", "115423.770000", "115424.775000", "115425.777500", "115426.782500", "115427.785000", "115428.790000", "115429.795000", "115430.797500", "115431.802500", "115432.805000", "115433.810000", "115434.815000", "115435.817500", "115436.822500", "115437.827500", "115438.830000", "115439.835000", "115440.837500", "115441.842500", "115442.847500", "115443.850000", "115444.855000", "115445.857500", "115446.862500", "115447.867500", "115448.870000", "115449.875000", "115450.877500", "115451.882500", "115452.887500", "115453.890000", "115454.895000", "115455.897500", "115456.902500", "115457.907500", "115458.910000", "115459.915000", "115500.917500", "115501.922500", "115502.927500", "115503.930000", "115504.935000", "115505.937500", "115506.942500", "115507.947500", "115508.950000", "115509.955000", "115510.960000", "115511.962500", "115512.967500", "115513.970000", "115514.975000", "115515.980000", "115516.982500", "115517.987500", "115518.990000", "115519.995000", "115521.000000", "115522.002500", "115523.007500", "115524.010000", "115525.015000", "115526.020000", "115527.022500", "115528.027500", "115529.030000", "115530.035000", "115531.040000", "115532.042500", "115533.047500", "115534.050000", "115535.055000", "115536.060000", "115537.062500", "115538.067500", "115539.072500", "115540.075000", "115541.080000", "115542.082500", "115543.087500", "115544.092500", "115545.095000", "115546.100000", "115547.102500", "115548.107500", "115549.112500", "115550.115000", "115551.120000", "115552.122500", "115553.127500", "115554.132500", "115555.135000", "115556.140000", "115557.142500", "115558.147500", "115559.152500", "115600.155000", "115601.160000", "115602.162500", "115603.167500", "115604.172500", "115605.175000", "115606.180000", "115607.182500", "115608.187500", "115609.192500", "115610.195000", "115611.200000", "115612.205000", "115613.207500", "115614.212500", "115615.215000", "115616.220000", "115617.225000", "115618.227500", "115619.232500", "115620.235000", "115621.240000", "115622.245000", "115623.247500", "115624.252500", "115625.255000", "115626.260000", "115627.265000", "115628.267500", "115629.272500", "115630.275000", "115631.280000", "115632.285000", "115633.287500", "115634.292500", "115635.295000", "115636.300000", "115637.305000", "115638.307500", "115639.312500", "115640.315000", "115641.320000", "115642.325000", "115643.327500", "115644.332500", "115645.337500", "115646.340000", "115647.345000", "115648.347500", "115649.352500", "115650.357500", "115651.360000", "115652.365000", "115653.367500", "115654.372500", "115655.377500", "115656.380000", "115657.385000", "115658.387500", "115659.392500", "115700.397500", "115701.400000", "115702.405000", "115703.407500", "115704.412500", "115705.417500", "115706.420000", "115707.425000", "115708.427500", "115709.432500", "115710.437500", "115711.440000", "115712.445000", "115713.450000", "115714.452500", "115715.457500", "115716.460000", "115717.465000", "115718.470000", "115719.472500", "115720.477500", "115721.480000", "115722.485000", "115723.490000", "115724.492500", "115725.497500", "115726.500000", "115727.505000", "115728.510000", "115729.512500", "115730.517500", "115731.520000", "115732.525000", "115733.530000", "115734.532500", "115735.537500", "115736.540000", "115737.545000", "115738.550000", "115739.552500", "115740.557500", "115741.560000", "115742.565000", "115743.570000", "115744.572500", "115745.577500", "115746.582500", "115747.585000", "115748.590000", "115749.592500", "115750.597500"],
      "ContentTime": ["115245.328000", "115245.343000", "115245.343000", "115245.343000", "115245.343000", "115245.343000", "115245.343000", "115245.343000", "115245.359000", "115245.359000", "115245.359000", "115245.359000", "115245.359000", "115245.359000", "115245.359000", "115245.359000", "115245.375000", "115245.375000", "115245.375000", "115245.375000", "115245.375000", "115245.375000", "115245.375000", "115305.281000", "115305.281000", "115305.281000", "115305.281000", "115305.296000", "115305.296000", "115305.296000", "115305.296000", "115305.296000", "115305.296000", "115305.312000", "115305.312000", "115305.312000", "115305.312000", "115305.312000", "115305.312000", "115305.312000", "115305.328000", "115305.328000", "115305.328000", "115325.281000", "115325.281000", "115325.281000", "115325.281000", "115325.281000", "115325.281000", "115325.296000", "115325.296000", "115325.296000", "115325.296000", "115325.296000", "115325.296000", "115325.296000", "115325.296000", "115325.312000", "115325.312000", "115325.312000", "115325.312000", "115325.312000", "115325.312000", "115345.281000", "115345.281000", "115345.281000", "115345.281000", "115345.296000", "115345.296000", "115345.296000", "115345.296000", "115345.296000", "115345.296000", "115345.296000", "115345.312000", "115345.312000", "115345.312000", "115345.312000", "115345.312000", "115345.312000", "115345.312000", "115345.328000", "115345.328000", "115405.281000", "115405.281000", "115405.281000", "115405.281000", "115405.281000", "115405.281000", "115405.296000", "115405.296000", "115405.296000", "115405.296000", "115405.296000", "115405.296000", "115405.296000", "115405.312000", "115405.312000", "115405.312000", "115405.312000", "115405.312000", "115405.312000", "115405.328000", "115425.281000", "115425.281000", "115425.281000", "115425.281000", "115425.296000", "115425.296000", "115425.296000", "115425.296000", "115425.296000", "115425.296000", "115425.296000", "115425.296000", "115425.312000", "115425.312000", "115425.312000", "115425.312000", "115425.312000", "115425.328000", "115425.328000", "115425.328000", "115445.281000", "115445.281000", "115445.281000", "115445.281000", "115445.281000", "115445.281000", "115445.296000", "115445.296000", "115445.296000", "115445.296000", "115445.296000", "115445.296000", "115445.296000", "115445.296000", "115445.312000", "115445.312000", "115445.312000", "115445.312000", "115445.312000", "115445.312000", "115505.281000", "115505.281000", "115505.281000", "115505.281000", "115505.296000", "115505.296000", "115505.296000", "115505.296000", "115505.296000", "115505.312000", "115505.312000", "115505.312000", "115505.312000", "115505.312000", "115505.312000", "115505.312000", "115505.328000", "115505.328000", "115505.328000", "115505.328000", "115525.281000", "115525.281000", "115525.281000", "115525.296000", "115525.296000", "115525.296000", "115525.296000", "115525.296000", "115525.296000", "115525.296000", "115525.296000", "115525.312000", "115525.312000", "115525.312000", "115525.312000", "115525.312000", "115525.312000", "115525.312000", "115525.328000", "115525.328000", "115545.281000", "115545.281000", "115545.296000", "115545.296000", "115545.296000", "115545.296000", "115545.296000", "115545.296000", "115545.312000", "115545.312000", "115545.312000", "115545.312000", "115545.312000", "115545.312000", "115545.312000", "115545.312000", "115545.328000", "115545.328000", "115545.328000", "115545.328000", "115605.281000", "115605.281000", "115605.281000", "115605.281000", "115605.281000", "115605.296000", "115605.296000", "115605.296000", "115605.296000", "115605.296000", "115605.312000", "115605.312000", "115605.312000", "115605.312000", "115605.312000", "115605.312000", "115605.312000", "115605.312000", "115605.328000", "115605.328000", "115625.281000", "115625.281000", "115625.281000", "115625.281000", "115625.281000", "115625.281000", "115625.296000", "115625.296000", "115625.296000", "115625.296000", "115625.296000", "115625.296000", "115625.296000", "115625.296000", "115625.312000", "115625.312000", "115625.312000", "115625.328000", "115625.328000", "115625.328000", "115645.281000", "115645.281000", "115645.281000", "115645.281000", "115645.281000", "115645.281000", "115645.296000", "115645.296000", "115645.296000", "115645.296000", "115645.296000", "115645.296000", "115645.312000", "115645.312000", "115645.312000", "115645.312000", "115645.312000", "115645.312000", "115645.312000", "115645.328000", "115705.281000", "115705.281000", "115705.281000", "115705.281000", "115705.281000", "115705.281000", "115705.296000", "115705.296000", "115705.296000", "115705.296000", "115705.296000", "115705.312000", "115705.312000", "115705.312000", "115705.312000", "115705.312000", "115705.312000", "115705.312000", "115705.328000", "115705.328000", "115725.281000", "115725.281000", "115725.281000", "115725.281000", "115725.281000", "115725.281000", "115725.296000", "115725.296000", "115725.296000", "115725.296000", "115725.296000", "115725.296000", "115725.296000", "115725.296000", "115725.312000", "115725.312000", "115725.312000", "115725.312000", "115725.312000", "115725.312000", "115745.281000", "115745.281000", "115745.281000", "115745.281000", "115745.281000", "115745.281000", "115745.296000", "115745.296000", "115745.296000", "115745.296000", "115745.296000", "115745.296000", "115745.296000", "115745.296000", "115745.312000", "115745.312000", "115745.312000", "115745.312000", "115745.312000", "115745.312000", "115756.468000", "115756.468000", "115756.468000", "115756.468000", "115756.468000", "115756.468000", "115756.468000"],
      "InstanceCreationTime": ["115245.328000", "115245.343000", "115245.343000", "115245.343000", "115245.343000", "115245.343000", "115245.343000", "115245.343000", "115245.359000", "115245.359000", "115245.359000", "115245.359000", "115245.359000", "115245.359000", "115245.359000", "115245.359000", "115245.375000", "115245.375000", "115245.375000", "115245.375000", "115245.375000", "115245.375000", "115245.375000", "115305.281000", "115305.281000", "115305.281000", "115305.281000", "115305.296000", "115305.296000", "115305.296000", "115305.296000", "115305.296000", "115305.296000", "115305.312000", "115305.312000", "115305.312000", "115305.312000", "115305.312000", "115305.312000", "115305.312000", "115305.328000", "115305.328000", "115305.328000", "115325.281000", "115325.281000", "115325.281000", "115325.281000", "115325.281000", "115325.281000", "115325.296000", "115325.296000", "115325.296000", "115325.296000", "115325.296000", "115325.296000", "115325.296000", "115325.296000", "115325.312000", "115325.312000", "115325.312000", "115325.312000", "115325.312000", "115325.312000", "115345.281000", "115345.281000", "115345.281000", "115345.281000", "115345.296000", "115345.296000", "115345.296000", "115345.296000", "115345.296000", "115345.296000", "115345.296000", "115345.312000", "115345.312000", "115345.312000", "115345.312000", "115345.312000", "115345.312000", "115345.312000", "115345.328000", "115345.328000", "115405.281000", "115405.281000", "115405.281000", "115405.281000", "115405.281000", "115405.281000", "115405.296000", "115405.296000", "115405.296000", "115405.296000", "115405.296000", "115405.296000", "115405.296000", "115405.312000", "115405.312000", "115405.312000", "115405.312000", "115405.312000", "115405.312000", "115405.328000", "115425.281000", "115425.281000", "115425.281000", "115425.281000", "115425.296000", "115425.296000", "115425.296000", "115425.296000", "115425.296000", "115425.296000", "115425.296000", "115425.296000", "115425.312000", "115425.312000", "115425.312000", "115425.312000", "115425.312000", "115425.328000", "115425.328000", "115425.328000", "115445.281000", "115445.281000", "115445.281000", "115445.281000", "115445.281000", "115445.281000", "115445.296000", "115445.296000", "115445.296000", "115445.296000", "115445.296000", "115445.296000", "115445.296000", "115445.296000", "115445.312000", "115445.312000", "115445.312000", "115445.312000", "115445.312000", "115445.312000", "115505.281000", "115505.281000", "115505.281000", "115505.281000", "115505.296000", "115505.296000", "115505.296000", "115505.296000", "115505.296000", "115505.312000", "115505.312000", "115505.312000", "115505.312000", "115505.312000", "115505.312000", "115505.312000", "115505.328000", "115505.328000", "115505.328000", "115505.328000", "115525.281000", "115525.281000", "115525.281000", "115525.296000", "115525.296000", "115525.296000", "115525.296000", "115525.296000", "115525.296000", "115525.296000", "115525.296000", "115525.312000", "115525.312000", "115525.312000", "115525.312000", "115525.312000", "115525.312000", "115525.312000", "115525.328000", "115525.328000", "115545.281000", "115545.281000", "115545.296000", "115545.296000", "115545.296000", "115545.296000", "115545.296000", "115545.296000", "115545.312000", "115545.312000", "115545.312000", "115545.312000", "115545.312000", "115545.312000", "115545.312000", "115545.312000", "115545.328000", "115545.328000", "115545.328000", "115545.328000", "115605.281000", "115605.281000", "115605.281000", "115605.281000", "115605.281000", "115605.296000", "115605.296000", "115605.296000", "115605.296000", "115605.296000", "115605.312000", "115605.312000", "115605.312000", "115605.312000", "115605.312000", "115605.312000", "115605.312000", "115605.312000", "115605.328000", "115605.328000", "115625.281000", "115625.281000", "115625.281000", "115625.281000", "115625.281000", "115625.281000", "115625.296000", "115625.296000", "115625.296000", "115625.296000", "115625.296000", "115625.296000", "115625.296000", "115625.296000", "115625.312000", "115625.312000", "115625.312000", "115625.328000", "115625.328000", "115625.328000", "115645.281000", "115645.281000", "115645.281000", "115645.281000", "115645.281000", "115645.281000", "115645.296000", "115645.296000", "115645.296000", "115645.296000", "115645.296000", "115645.296000", "115645.312000", "115645.312000", "115645.312000", "115645.312000", "115645.312000", "115645.312000", "115645.312000", "115645.328000", "115705.281000", "115705.281000", "115705.281000", "115705.281000", "115705.281000", "115705.281000", "115705.296000", "115705.296000", "115705.296000", "115705.296000", "115705.296000", "115705.312000", "115705.312000", "115705.312000", "115705.312000", "115705.312000", "115705.312000", "115705.312000", "115705.328000", "115705.328000", "115725.281000", "115725.281000", "115725.281000", "115725.281000", "115725.281000", "115725.281000", "115725.296000", "115725.296000", "115725.296000", "115725.296000", "115725.296000", "115725.296000", "115725.296000", "115725.296000", "115725.312000", "115725.312000", "115725.312000", "115725.312000", "115725.312000", "115725.312000", "115745.281000", "115745.281000", "115745.281000", "115745.281000", "115745.281000", "115745.281000", "115745.296000", "115745.296000", "115745.296000", "115745.296000", "115745.296000", "115745.296000", "115745.296000", "115745.296000", "115745.312000", "115745.312000", "115745.312000", "115745.312000", "115745.312000", "115745.312000", "115756.468000", "115756.468000", "115756.468000", "115756.468000", "115756.468000", "115756.468000", "115756.468000"],
      "InstanceNumber": [1, 2, 3, 4, 5, 6, 7, 8, 9, 10, 11, 12, 13, 14, 15, 16, 17, 18, 19, 20, 21, 22, 23, 24, 25, 26, 27, 28, 29, 30, 31, 32, 33, 34, 35, 36, 37, 38, 39, 40, 41, 42, 43, 44, 45, 46, 47, 48, 49, 50, 51, 52, 53, 54, 55, 56, 57, 58, 59, 60, 61, 62, 63, 64, 65, 66, 67, 68, 69, 70, 71, 72, 73, 74, 75, 76, 77, 78, 79, 80, 81, 82, 83, 84, 85, 86, 87, 88, 89, 90, 91, 92, 93, 94, 95, 96, 97, 98, 99, 100, 101, 102, 103, 104, 105, 106, 107, 108, 109, 110, 111, 112, 113, 114, 115, 116, 117, 118, 119, 120, 121, 122, 123, 124, 125, 126, 127, 128, 129, 130, 131, 132, 133, 134, 135, 136, 137, 138, 139, 140, 141, 142, 143, 144, 145, 146, 147, 148, 149, 150, 151, 152, 153, 154, 155, 156, 157, 158, 159, 160, 161, 162, 163, 164, 165, 166, 167, 168, 169, 170, 171, 172, 173, 174, 175, 176, 177, 178, 179, 180, 181, 182, 183, 184, 185, 186, 187, 188, 189, 190, 191, 192, 193, 194, 195, 196, 197, 198, 199, 200, 201, 202, 203, 204, 205, 206, 207, 208, 209, 210, 211, 212, 213, 214, 215, 216, 217, 218, 219, 220, 221, 222, 223, 224, 225, 226, 227, 228, 229, 230, 231, 232, 233, 234, 235, 236, 237, 238, 239, 240, 241, 242, 243, 244, 245, 246, 247, 248, 249, 250, 251, 252, 253, 254, 255, 256, 257, 258, 259, 260, 261, 262, 263, 264, 265, 266, 267, 268, 269, 270, 271, 272, 273, 274, 275, 276, 277, 278, 279, 280, 281, 282, 283, 284, 285, 286, 287, 288, 289, 290, 291, 292, 293, 294, 295, 296, 297, 298, 299, 300, 301, 302, 303, 304, 305, 306, 307, 308, 309, 310, 311, 312, 313, 314, 315, 316, 317, 318, 319, 320, 321, 322, 323, 324, 325, 326, 327, 328, 329, 330],
      "LargestImagePixelValue": [2556, 2534, 2547, 2547, 2490, 2514, 2504, 2463, 2468, 2478, 2456, 2458, 2469, 2499, 2472, 2482, 2486, 2486, 2462, 2468, 2458, 2487, 2433, 2446, 2500, 2499, 2541, 2494, 2500, 2475, 2524, 2464, 2501, 2501, 2492, 2490, 2497, 2475, 2486, 2493, 2505, 2479, 2466, 2472, 2477, 2463, 2503, 2438, 2475, 2452, 2459, 2479, 2465, 2461, 2517, 2544, 2510, 2526, 2519, 2453, 2505, 2426, 2468, 2487, 2514, 2448, 2520, 2481, 2442, 2459, 2499, 2455, 2460, 2459, 2456, 2493, 2510, 2476, 2434, 2479, 2476, 2445, 2475, 2449, 2389, 2432, 2415, 2481, 2449, 2518, 2506, 2537, 2531, 2550, 2539, 2480, 2520, 2488, 2508, 2487, 2459, 2470, 2464, 2419, 2517, 2516, 2541, 2553, 2493, 2465, 2486, 2475, 2440, 2492, 2431, 2458, 2504, 2468, 2425, 2435, 2450, 2481, 2462, 2443, 2446, 2442, 2433, 2453, 2419, 2478, 2497, 2490, 2492, 2440, 2469, 2493, 2469, 2507, 2498, 2478, 2555, 2530, 2492, 2514, 2509, 2545, 2513, 2494, 2470, 2435, 2472, 2468, 2451, 2498, 2493, 2476, 2448, 2448, 2418, 2383, 2364, 2394, 2407, 2464, 2401, 2415, 2453, 2400, 2392, 2482, 2458, 2430, 2434, 2447, 2466, 2408, 2453, 2461, 2418, 2541, 2472, 2433, 2414, 2420, 2401, 2448, 2444, 2422, 2384, 2393, 2411, 2353, 2400, 2357, 2389, 2454, 2443, 2409, 2406, 2433, 2378, 2453, 2459, 2451, 2433, 2454, 2414, 2458, 2480, 2430, 2411, 2444, 2380, 2364, 2418, 2465, 2540, 2485, 2521, 2472, 2394, 2468, 2460, 2438, 2476, 2504, 2463, 2444, 2440, 2379, 2476, 2468, 2419, 2503, 2473, 2501, 2464, 2419, 2421, 2453, 2427, 2428, 2471, 2481, 2435, 2482, 2487, 2453, 2486, 2451, 2399, 2444, 2484, 2516, 2404, 2403, 2418, 2417, 2450, 2408, 2386, 2390, 2436, 2474, 2385, 2410, 2383, 2404, 2404, 2399, 2378, 2380, 2363, 2393, 2418, 2402, 2454, 2430, 2436, 2460, 2430, 2465, 2457, 2476, 2467, 2403, 2461, 2428, 2380, 2452, 2400, 2436, 2456, 2441, 2424, 2432, 2383, 2420, 2419, 2373, 2361, 2417, 2449, 2433, 2458, 2401, 2478, 2470, 2435, 2431, 2423, 2417, 2377, 2401, 2404, 2470, 2439, 2411, 2487, 2454, 2468, 2464, 2483, 2484, 2459, 2462, 2467, 2459, 2495, 2445],
      "WindowCenter": [436.0, 437.0, 437.0, 437.0, 437.0, 436.0, 435.0, 435.0, 436.0, 437.0, 438.0, 439.0, 439.0, 440.0, 440.0, 438.0, 437.0, 436.0, 436.0, 436.0, 436.0, 438.0, 438.0, 439.0, 439.0, 440.0, 439.0, 438.0, 437.0, 437.0, 438.0, 438.0, 440.0, 440.0, 441.0, 441.0, 440.0, 440.0, 440.0, 441.0, 441.0, 441.0, 440.0, 440.0, 439.0, 439.0, 438.0, 437.0, 438.0, 437.0, 437.0, 438.0, 439.0, 441.0, 441.0, 440.0, 439.0, 439.0, 438.0, 437.0, 439.0, 439.0, 440.0, 441.0, 441.0, 440.0, 441.0, 440.0, 439.0, 439.0, 438.0, 437.0, 437.0, 437.0, 437.0, 439.0, 440.0, 440.0, 440.0, 440.0, 439.0, 438.0, 437.0, 437.0, 436.0, 437.0, 438.0, 439.0, 438.0, 439.0, 438.0, 438.0, 438.0, 437.0, 437.0, 437.0, 438.0, 438.0, 439.0, 439.0, 438.0, 438.0, 437.0, 437.0, 438.0, 438.0, 438.0, 439.0, 438.0, 439.0, 439.0, 439.0, 439.0, 439.0, 439.0, 440.0, 440.0, 440.0, 439.0, 438.0, 438.0, 438.0, 437.0, 437.0, 437.0, 437.0, 439.0, 439.0, 439.0, 440.0, 440.0, 439.0, 439.0, 438.0, 438.0, 438.0, 436.0, 437.0, 438.0, 438.0, 439.0, 441.0, 439.0, 439.0, 438.0, 437.0, 436.0, 437.0, 436.0, 435.0, 436.0, 436.0, 438.0, 440.0, 441.0, 441.0, 440.0, 439.0, 438.0, 436.0, 437.0, 438.0, 438.0, 440.0, 439.0, 439.0, 439.0, 438.0, 438.0, 439.0, 438.0, 437.0, 437.0, 437.0, 437.0, 437.0, 438.0, 437.0, 437.0, 439.0, 438.0, 437.0, 437.0, 437.0, 436.0, 437.0, 436.0, 436.0, 436.0, 436.0, 436.0, 436.0, 436.0, 435.0, 436.0, 436.0, 437.0, 437.0, 437.0, 439.0, 438.0, 439.0, 439.0, 438.0, 438.0, 438.0, 438.0, 439.0, 439.0, 439.0, 439.0, 439.0, 439.0, 439.0, 439.0, 439.0, 440.0, 439.0, 439.0, 438.0, 437.0, 437.0, 437.0, 436.0, 438.0, 438.0, 439.0, 439.0, 440.0, 439.0, 439.0, 438.0, 436.0, 437.0, 437.0, 437.0, 437.0, 437.0, 438.0, 439.0, 438.0, 439.0, 439.0, 439.0, 438.0, 438.0, 438.0, 438.0, 439.0, 439.0, 439.0, 439.0, 440.0, 441.0, 440.0, 440.0, 440.0, 439.0, 439.0, 438.0, 437.0, 437.0, 437.0, 439.0, 438.0, 438.0, 437.0, 437.0, 437.0, 437.0, 436.0, 436.0, 436.0, 437.0, 437.0, 437.0, 438.0, 438.0, 437.0, 438.0, 437.0, 437.0, 438.0, 438.0, 438.0, 437.0, 438.0, 437.0, 437.0, 438.0, 438.0, 440.0, 440.0, 439.0, 439.0, 438.0, 437.0, 437.0, 436.0, 436.0, 436.0, 437.0, 438.0, 439.0, 439.0, 439.0, 440.0, 438.0, 437.0, 437.0, 436.0, 437.0, 438.0, 438.0, 438.0, 439.0, 438.0, 437.0, 437.0, 436.0, 436.0, 436.0, 436.0, 436.0, 436.0, 436.0, 436.0, 436.0, 437.0, 437.0],
