{
  "AcquisitionMatrixPE": 104,
  "AcquisitionNumber": 1,
  "AcquisitionTime": "10:34:1.995000",
  "BandwidthPerPixelPhaseEncode": 43.054,
  "BaseResolution": 104,
  "CoilString": "C:E1_2",
  "ConversionSoftware": "dcm2niix",
  "ConversionSoftwareVersion": "v1.0.20191031",
  "DerivedVendorReportedEchoSpacing": 0.000669999,
  "DeviceSerialNumber": "18932",
  "DwellTime": 2.8e-06,
  "EchoTime": 0.02,
  "EffectiveEchoSpacing": 0.000223333,
  "FlipAngle": 30,
  "ImageComments": "Unaliased_MB2_PE2",
  "ImageOrientationPatientDICOM": [1, 0, 0, 0, 0.981959, -0.189095],
  "ImageType": [
    "ORIGINAL",
    "PRIMARY",
    "M",
    "MB",
    "ND",
    "MOSAIC"
],
  "ImagingFrequency": 297.229,
  "InPlanePhaseEncodingDirectionDICOM": "COL",
  "InstitutionAddress": "Richmond_Street_North_1151_London_409EF2_Ontario_CA_N6A_5B7",
  "InstitutionName": "Robarts_Reserch_Institute",
  "InstitutionalDepartmentName": "Department",
  "MRAcquisitionType": "2D",
  "MagneticFieldStrength": 6.98,
  "Manufacturer": "Siemens",
  "ManufacturersModelName": "Investigational_Device_7T",
  "Modality": "MR",
  "MultibandAccelerationFactor": 2,
  "ParallelReductionFactorInPlane": 3,
  "PartialFourier": 0.875,
  "PatientPosition": "HFS",
  "PercentPhaseFOV": 100,
  "PhaseEncodingDirection": "j-",
  "PhaseEncodingSteps": 91,
  "PhaseResolution": 1,
  "PixelBandwidth": 1717,
  "ProcedureStepDescription": "Diedrichsen_SeqRep4",
  "ProtocolName": "mbep2d_bold_mb2_p3_AP_2iso",
  "PulseSequenceDetails": "%CustomerSeq%_cmrr_mbep2d_bold",
  "ReceiveCoilName": "CFMM_8Tx32Rx",
  "ReconMatrixPE": 104,
  "RefLinesPE": 36,
  "RepetitionTime": 1,
  "ScanOptions": "PFP_FS",
  "ScanningSequence": "EP",
  "SequenceName": "epfid2d1_104",
  "SequenceVariant": "SK_SS",
  "SeriesDescription": "mbep2d_bold_mb2_p3_AP_2iso",
  "SeriesNumber": 39,
  "ShimSetting": [38, 2034, 46, 1324, 90, 41, 125, -176],
  "SliceThickness": 2,
  "SliceTiming": [0, 0.2275, 0.455, 0.685, 0.9125, 0.1375, 0.365, 0.5925, 0.82, 0.045, 0.2725, 0.5025, 0.73, 0.9575, 0.1825, 0.41, 0.6375, 0.8675, 0.09, 0.32, 0.5475, 0.775, 0, 0.2275, 0.455, 0.685, 0.9125, 0.1375, 0.365, 0.5925, 0.82, 0.045, 0.2725, 0.5025, 0.73, 0.9575, 0.1825, 0.41, 0.6375, 0.8675, 0.09, 0.32, 0.5475, 0.775],
  "SoftwareVersions": "syngo_MR_B17",
  "SpacingBetweenSlices": 2,
  "StationName": "MASTER",
  "TaskName": "dsp",
  "TotalReadoutTime": 0.0230033,
  "TxRefAmp": 120,
  "dcmmeta_affine": [
    [-2.0, 0.0, 0.0, 109.08474731445312],
    [0.0, 1.9639173746109009, -0.37819087505340576, -92.75724792480469],
    [0.0, 0.37819087505340576, 1.9639173746109009, -39.043243408203125],
    [0.0, 0.0, 0.0, 1.0]
],
  "dcmmeta_reorient_transform": [
    [0.0, -1.0, 0.0, 103.0],
    [1.0, 0.0, 0.0, 0.0],
    [0.0, 0.0, 1.0, 0.0],
    [0.0, 0.0, 0.0, 1.0]
],
  "dcmmeta_shape": [104, 104, 44, 330],
  "dcmmeta_slice_dim": 2,
  "dcmmeta_version": 0.6,
  "global": {
    "const": {
      "AcquisitionMatrix": [104, 0, 0, 104],
      "AngioFlag": "N",
      "BitsAllocated": 16,
      "BitsStored": 12,
      "Columns": 728,
      "EchoNumbers": 1,
      "EchoTime": 20.0,
      "EchoTrainLength": 1,
      "FlipAngle": 30.0,
      "HighBit": 11,
      "ImageOrientationPatient": [1.0, 0.0, 0.0, 0.0, 0.98195871320217, -0.1890954403637],
      "ImagePositionPatient": [-733.08474588394, -722.26848675595, 117.90597216194],
      "ImageType": [
        "ORIGINAL",
        "PRIMARY",
        "M",
        "MB",
        "ND",
        "MOSAIC"
],
      "ImagedNucleus": "1H",
      "ImagingFrequency": 297.228998,
      "InPlanePhaseEncodingDirection": "COL",
      "MRAcquisitionType": "2D",
      "MagneticFieldStrength": 6.98,
      "Manufacturer": "SIEMENS",
      "ManufacturerModelName": "Investigational_Device_7T",
      "Modality": "MR",
      "NumberOfAverages": 1.0,
      "NumberOfPhaseEncodingSteps": 91,
      "PercentPhaseFieldOfView": 100.0,
      "PercentSampling": 100.0,
      "PerformedProcedureStepStartTime": "091304.843000",
      "PhotometricInterpretation": "MONOCHROME2",
      "PixelBandwidth": 1717.0,
      "PixelRepresentation": 0,
      "PixelSpacing": [2.0, 2.0],
      "ProtocolName": "mbep2d_bold_mb2_p3_AP 2iso",
      "RepetitionTime": 1000.0,
      "Rows": 728,
      "SAR": 0.0,
      "SamplesPerPixel": 1,
      "ScanOptions": [
        "PFP",
        "FS"
],
      "ScanningSequence": "EP",
      "SequenceName": "epfid2d1_104",
      "SequenceVariant": [
        "SK",
        "SS"
],
      "SeriesDescription": "mbep2d_bold_mb2_p3_AP 2iso",
      "SeriesNumber": 39,
      "SeriesTime": "103436.031000",
      "SliceLocation": -20.798880860968,
      "SliceThickness": 2.0,
      "SmallestImagePixelValue": 0,
      "SoftwareVersions": "syngo MR B17",
      "SpacingBetweenSlices": 1.9999999720445,
      "SpecificCharacterSet": "ISO_IR 100",
      "StudyID": "1",
      "StudyTime": "091304.796000",
      "TransmitCoilName": "CFMM_8Tx32Rx",
      "VariableFlipAngleFlag": "N",
      "WindowCenterWidthExplanation": "Algo1",
      "dBdt": 0.0},
    "slices": {}
  },
  "time": {
    "samples": {
      "AcquisitionNumber": [1, 2, 3, 4, 5, 6, 7, 8, 9, 10, 11, 12, 13, 14, 15, 16, 17, 18, 19, 20, 21, 22, 23, 24, 25, 26, 27, 28, 29, 30, 31, 32, 33, 34, 35, 36, 37, 38, 39, 40, 41, 42, 43, 44, 45, 46, 47, 48, 49, 50, 51, 52, 53, 54, 55, 56, 57, 58, 59, 60, 61, 62, 63, 64, 65, 66, 67, 68, 69, 70, 71, 72, 73, 74, 75, 76, 77, 78, 79, 80, 81, 82, 83, 84, 85, 86, 87, 88, 89, 90, 91, 92, 93, 94, 95, 96, 97, 98, 99, 100, 101, 102, 103, 104, 105, 106, 107, 108, 109, 110, 111, 112, 113, 114, 115, 116, 117, 118, 119, 120, 121, 122, 123, 124, 125, 126, 127, 128, 129, 130, 131, 132, 133, 134, 135, 136, 137, 138, 139, 140, 141, 142, 143, 144, 145, 146, 147, 148, 149, 150, 151, 152, 153, 154, 155, 156, 157, 158, 159, 160, 161, 162, 163, 164, 165, 166, 167, 168, 169, 170, 171, 172, 173, 174, 175, 176, 177, 178, 179, 180, 181, 182, 183, 184, 185, 186, 187, 188, 189, 190, 191, 192, 193, 194, 195, 196, 197, 198, 199, 200, 201, 202, 203, 204, 205, 206, 207, 208, 209, 210, 211, 212, 213, 214, 215, 216, 217, 218, 219, 220, 221, 222, 223, 224, 225, 226, 227, 228, 229, 230, 231, 232, 233, 234, 235, 236, 237, 238, 239, 240, 241, 242, 243, 244, 245, 246, 247, 248, 249, 250, 251, 252, 253, 254, 255, 256, 257, 258, 259, 260, 261, 262, 263, 264, 265, 266, 267, 268, 269, 270, 271, 272, 273, 274, 275, 276, 277, 278, 279, 280, 281, 282, 283, 284, 285, 286, 287, 288, 289, 290, 291, 292, 293, 294, 295, 296, 297, 298, 299, 300, 301, 302, 303, 304, 305, 306, 307, 308, 309, 310, 311, 312, 313, 314, 315, 316, 317, 318, 319, 320, 321, 322, 323, 324, 325, 326, 327, 328, 329, 330],
      "AcquisitionTime": ["103401.995000", "103403.000000", "103404.002500", "103405.007500", "103406.010000", "103407.015000", "103408.020000", "103409.022500", "103410.027500", "103411.030000", "103412.035000", "103413.040000", "103414.042500", "103415.047500", "103416.050000", "103417.055000", "103418.060000", "103419.062500", "103420.067500", "103421.072500", "103422.075000", "103423.080000", "103424.082500", "103425.087500", "103426.092500", "103427.095000", "103428.100000", "103429.102500", "103430.107500", "103431.112500", "103432.115000", "103433.120000", "103434.122500", "103435.127500", "103436.132500", "103437.135000", "103438.140000", "103439.142500", "103440.147500", "103441.152500", "103442.155000", "103443.160000", "103444.162500", "103445.167500", "103446.172500", "103447.175000", "103448.180000", "103449.182500", "103450.187500", "103451.192500", "103452.195000", "103453.200000", "103454.205000", "103455.207500", "103456.212500", "103457.215000", "103458.220000", "103459.225000", "103500.227500", "103501.232500", "103502.235000", "103503.240000", "103504.245000", "103505.247500", "103506.252500", "103507.255000", "103508.260000", "103509.265000", "103510.267500", "103511.272500", "103512.275000", "103513.280000", "103514.285000", "103515.287500", "103516.292500", "103517.295000", "103518.300000", "103519.305000", "103520.307500", "103521.312500", "103522.317500", "103523.320000", "103524.325000", "103525.327500", "103526.332500", "103527.337500", "103528.340000", "103529.345000", "103530.347500", "103531.352500", "103532.357500", "103533.360000", "103534.365000", "103535.367500", "103536.372500", "103537.377500", "103538.380000", "103539.385000", "103540.387500", "103541.392500", "103542.397500", "103543.400000", "103544.405000", "103545.407500", "103546.412500", "103547.417500", "103548.420000", "103549.425000", "103550.427500", "103551.432500", "103552.437500", "103553.440000", "103554.445000", "103555.450000", "103556.452500", "103557.457500", "103558.460000", "103559.465000", "103600.470000", "103601.472500", "103602.477500", "103603.480000", "103604.485000", "103605.490000", "103606.492500", "103607.497500", "103608.500000", "103609.505000", "103610.510000", "103611.512500", "103612.517500", "103613.520000", "103614.525000", "103615.530000", "103616.532500", "103617.537500", "103618.540000", "103619.545000", "103620.550000", "103621.552500", "103622.557500", "103623.560000", "103624.565000", "103625.570000", "103626.572500", "103627.577500", "103628.582500", "103629.585000", "103630.590000", "103631.592500", "103632.597500", "103633.602500", "103634.605000", "103635.610000", "103636.612500", "103637.617500", "103638.622500", "103639.625000", "103640.630000", "103641.632500", "103642.637500", "103643.642500", "103644.645000", "103645.650000", "103646.652500", "103647.657500", "103648.662500", "103649.665000", "103650.670000", "103651.672500", "103652.677500", "103653.682500", "103654.685000", "103655.690000", "103656.695000", "103657.697500", "103658.702500", "103659.705000", "103700.710000", "103701.715000", "103702.717500", "103703.722500", "103704.725000", "103705.730000", "103706.735000", "103707.737500", "103708.742500", "103709.745000", "103710.750000", "103711.755000", "103712.757500", "103713.762500", "103714.765000", "103715.770000", "103716.775000", "103717.777500", "103718.782500", "103719.785000", "103720.790000", "103721.795000", "103722.797500", "103723.802500", "103724.805000", "103725.810000", "103726.815000", "103727.817500", "103728.822500", "103729.827500", "103730.830000", "103731.835000", "103732.837500", "103733.842500", "103734.847500", "103735.850000", "103736.855000", "103737.857500", "103738.862500", "103739.867500", "103740.870000", "103741.875000", "103742.877500", "103743.882500", "103744.887500", "103745.890000", "103746.895000", "103747.897500", "103748.902500", "103749.907500", "103750.910000", "103751.915000", "103752.917500", "103753.922500", "103754.927500", "103755.930000", "103756.935000", "103757.940000", "103758.942500", "103759.947500", "103800.950000", "103801.955000", "103802.960000", "103803.962500", "103804.967500", "103805.970000", "103806.975000", "103807.980000", "103808.982500", "103809.987500", "103810.990000", "103811.995000", "103813.000000", "103814.002500", "103815.007500", "103816.010000", "103817.015000", "103818.020000", "103819.022500", "103820.027500", "103821.030000", "103822.035000", "103823.040000", "103824.042500", "103825.047500", "103826.050000", "103827.055000", "103828.060000", "103829.062500", "103830.067500", "103831.072500", "103832.075000", "103833.080000", "103834.082500", "103835.087500", "103836.092500", "103837.095000", "103838.100000", "103839.102500", "103840.107500", "103841.112500", "103842.115000", "103843.120000", "103844.122500", "103845.127500", "103846.132500", "103847.135000", "103848.140000", "103849.142500", "103850.147500", "103851.152500", "103852.155000", "103853.160000", "103854.162500", "103855.167500", "103856.172500", "103857.175000", "103858.180000", "103859.182500", "103900.187500", "103901.192500", "103902.195000", "103903.200000", "103904.205000", "103905.207500", "103906.212500", "103907.215000", "103908.220000", "103909.225000", "103910.227500", "103911.232500", "103912.235000", "103913.240000", "103914.245000", "103915.247500", "103916.252500", "103917.255000", "103918.260000", "103919.265000", "103920.267500", "103921.272500", "103922.275000", "103923.280000", "103924.285000", "103925.287500", "103926.292500", "103927.295000", "103928.300000", "103929.305000", "103930.307500", "103931.312500", "103932.317500"],
      "ContentTime": ["103436.031000", "103436.031000", "103436.046000", "103436.046000", "103436.046000", "103436.046000", "103436.046000", "103436.046000", "103436.046000", "103436.062000", "103436.062000", "103436.062000", "103436.062000", "103436.062000", "103436.062000", "103436.078000", "103436.078000", "103436.078000", "103436.078000", "103436.078000", "103436.078000", "103436.078000", "103436.093000", "103436.093000", "103436.093000", "103436.093000", "103436.093000", "103436.093000", "103436.109000", "103436.109000", "103436.109000", "103436.109000", "103456.000000", "103456.000000", "103456.000000", "103456.000000", "103456.015000", "103456.015000", "103456.015000", "103456.015000", "103456.015000", "103456.015000", "103456.015000", "103456.031000", "103456.031000", "103456.031000", "103456.031000", "103456.031000", "103456.031000", "103456.031000", "103456.046000", "103456.046000", "103516.000000", "103516.000000", "103516.000000", "103516.000000", "103516.000000", "103516.015000", "103516.015000", "103516.015000", "103516.015000", "103516.015000", "103516.015000", "103516.015000", "103516.031000", "103516.031000", "103516.031000", "103516.031000", "103516.031000", "103516.031000", "103516.031000", "103516.031000", "103536.000000", "103536.000000", "103536.000000", "103536.015000", "103536.015000", "103536.015000", "103536.015000", "103536.031000", "103536.031000", "103536.031000", "103536.031000", "103536.031000", "103536.046000", "103536.046000", "103536.046000", "103536.046000", "103536.046000", "103536.046000", "103536.046000", "103536.062000", "103556.000000", "103556.000000", "103556.000000", "103556.000000", "103556.000000", "103556.015000", "103556.015000", "103556.015000", "103556.015000", "103556.015000", "103556.015000", "103556.015000", "103556.031000", "103556.031000", "103556.031000", "103556.031000", "103556.031000", "103556.031000", "103556.031000", "103556.046000", "103616.000000", "103616.000000", "103616.000000", "103616.000000", "103616.000000", "103616.015000", "103616.015000", "103616.015000", "103616.015000", "103616.015000", "103616.015000", "103616.015000", "103616.015000", "103616.031000", "103616.031000", "103616.031000", "103616.031000", "103616.031000", "103616.031000", "103616.031000", "103636.000000", "103636.000000", "103636.000000", "103636.000000", "103636.000000", "103636.015000", "103636.015000", "103636.015000", "103636.015000", "103636.015000", "103636.015000", "103636.015000", "103636.031000", "103636.031000", "103636.031000", "103636.031000", "103636.031000", "103636.031000", "103636.046000", "103636.046000", "103656.000000", "103656.000000", "103656.000000", "103656.000000", "103656.000000", "103656.015000", "103656.015000", "103656.015000", "103656.031000", "103656.031000", "103656.031000", "103656.031000", "103656.031000", "103656.031000", "103656.031000", "103656.046000", "103656.046000", "103656.046000", "103656.046000", "103656.046000", "103716.000000", "103716.000000", "103716.000000", "103716.000000", "103716.000000", "103716.015000", "103716.015000", "103716.015000", "103716.015000", "103716.015000", "103716.015000", "103716.015000", "103716.031000", "103716.031000", "103716.031000", "103716.031000", "103716.031000", "103716.031000", "103716.031000", "103716.046000", "103736.000000", "103736.000000", "103736.000000", "103736.000000", "103736.000000", "103736.015000", "103736.015000", "103736.015000", "103736.015000", "103736.015000", "103736.015000", "103736.015000", "103736.031000", "103736.031000", "103736.031000", "103736.031000", "103736.031000", "103736.031000", "103736.031000", "103736.046000", "103756.000000", "103756.000000", "103756.000000", "103756.000000", "103756.000000", "103756.015000", "103756.015000", "103756.015000", "103756.015000", "103756.015000", "103756.015000", "103756.015000", "103756.031000", "103756.031000", "103756.031000", "103756.031000", "103756.031000", "103756.031000", "103756.031000", "103756.046000", "103816.000000", "103816.000000", "103816.000000", "103816.000000", "103816.000000", "103816.015000", "103816.015000", "103816.015000", "103816.015000", "103816.015000", "103816.015000", "103816.015000", "103816.031000", "103816.031000", "103816.031000", "103816.031000", "103816.031000", "103816.031000", "103816.031000", "103816.046000", "103836.000000", "103836.000000", "103836.000000", "103836.000000", "103836.000000", "103836.015000", "103836.015000", "103836.015000", "103836.015000", "103836.015000", "103836.015000", "103836.015000", "103836.015000", "103836.031000", "103836.031000", "103836.031000", "103836.031000", "103836.031000", "103836.031000", "103836.031000", "103856.000000", "103856.000000", "103856.000000", "103856.000000", "103856.000000", "103856.015000", "103856.015000", "103856.015000", "103856.015000", "103856.031000", "103856.031000", "103856.031000", "103856.031000", "103856.031000", "103856.031000", "103856.031000", "103856.046000", "103856.046000", "103856.046000", "103856.046000", "103916.000000", "103916.000000", "103916.000000", "103916.000000", "103916.015000", "103916.015000", "103916.015000", "103916.015000", "103916.015000", "103916.015000", "103916.031000", "103916.031000", "103916.031000", "103916.031000", "103916.031000", "103916.031000", "103916.031000", "103916.031000", "103916.046000", "103916.046000", "103938.359000", "103938.359000", "103938.359000", "103938.359000", "103938.375000", "103938.375000", "103938.375000", "103938.375000", "103938.375000", "103938.390000", "103938.390000", "103938.390000", "103938.390000", "103938.390000", "103938.390000", "103938.406000", "103938.406000", "103938.406000"],
      "InstanceCreationTime": ["103436.031000", "103436.031000", "103436.046000", "103436.046000", "103436.046000", "103436.046000", "103436.046000", "103436.046000", "103436.046000", "103436.062000", "103436.062000", "103436.062000", "103436.062000", "103436.062000", "103436.062000", "103436.078000", "103436.078000", "103436.078000", "103436.078000", "103436.078000", "103436.078000", "103436.078000", "103436.093000", "103436.093000", "103436.093000", "103436.093000", "103436.093000", "103436.093000", "103436.109000", "103436.109000", "103436.109000", "103436.109000", "103456.000000", "103456.000000", "103456.000000", "103456.000000", "103456.015000", "103456.015000", "103456.015000", "103456.015000", "103456.015000", "103456.015000", "103456.015000", "103456.031000", "103456.031000", "103456.031000", "103456.031000", "103456.031000", "103456.031000", "103456.031000", "103456.046000", "103456.046000", "103516.000000", "103516.000000", "103516.000000", "103516.000000", "103516.000000", "103516.015000", "103516.015000", "103516.015000", "103516.015000", "103516.015000", "103516.015000", "103516.015000", "103516.031000", "103516.031000", "103516.031000", "103516.031000", "103516.031000", "103516.031000", "103516.031000", "103516.031000", "103536.000000", "103536.000000", "103536.000000", "103536.015000", "103536.015000", "103536.015000", "103536.015000", "103536.031000", "103536.031000", "103536.031000", "103536.031000", "103536.031000", "103536.046000", "103536.046000", "103536.046000", "103536.046000", "103536.046000", "103536.046000", "103536.046000", "103536.062000", "103556.000000", "103556.000000", "103556.000000", "103556.000000", "103556.000000", "103556.015000", "103556.015000", "103556.015000", "103556.015000", "103556.015000", "103556.015000", "103556.015000", "103556.031000", "103556.031000", "103556.031000", "103556.031000", "103556.031000", "103556.031000", "103556.031000", "103556.046000", "103616.000000", "103616.000000", "103616.000000", "103616.000000", "103616.000000", "103616.015000", "103616.015000", "103616.015000", "103616.015000", "103616.015000", "103616.015000", "103616.015000", "103616.015000", "103616.031000", "103616.031000", "103616.031000", "103616.031000", "103616.031000", "103616.031000", "103616.031000", "103636.000000", "103636.000000", "103636.000000", "103636.000000", "103636.000000", "103636.015000", "103636.015000", "103636.015000", "103636.015000", "103636.015000", "103636.015000", "103636.015000", "103636.031000", "103636.031000", "103636.031000", "103636.031000", "103636.031000", "103636.031000", "103636.046000", "103636.046000", "103656.000000", "103656.000000", "103656.000000", "103656.000000", "103656.000000", "103656.015000", "103656.015000", "103656.015000", "103656.031000", "103656.031000", "103656.031000", "103656.031000", "103656.031000", "103656.031000", "103656.031000", "103656.046000", "103656.046000", "103656.046000", "103656.046000", "103656.046000", "103716.000000", "103716.000000", "103716.000000", "103716.000000", "103716.000000", "103716.015000", "103716.015000", "103716.015000", "103716.015000", "103716.015000", "103716.015000", "103716.015000", "103716.031000", "103716.031000", "103716.031000", "103716.031000", "103716.031000", "103716.031000", "103716.031000", "103716.046000", "103736.000000", "103736.000000", "103736.000000", "103736.000000", "103736.000000", "103736.015000", "103736.015000", "103736.015000", "103736.015000", "103736.015000", "103736.015000", "103736.015000", "103736.031000", "103736.031000", "103736.031000", "103736.031000", "103736.031000", "103736.031000", "103736.031000", "103736.046000", "103756.000000", "103756.000000", "103756.000000", "103756.000000", "103756.000000", "103756.015000", "103756.015000", "103756.015000", "103756.015000", "103756.015000", "103756.015000", "103756.015000", "103756.031000", "103756.031000", "103756.031000", "103756.031000", "103756.031000", "103756.031000", "103756.031000", "103756.046000", "103816.000000", "103816.000000", "103816.000000", "103816.000000", "103816.000000", "103816.015000", "103816.015000", "103816.015000", "103816.015000", "103816.015000", "103816.015000", "103816.015000", "103816.031000", "103816.031000", "103816.031000", "103816.031000", "103816.031000", "103816.031000", "103816.031000", "103816.046000", "103836.000000", "103836.000000", "103836.000000", "103836.000000", "103836.000000", "103836.015000", "103836.015000", "103836.015000", "103836.015000", "103836.015000", "103836.015000", "103836.015000", "103836.015000", "103836.031000", "103836.031000", "103836.031000", "103836.031000", "103836.031000", "103836.031000", "103836.031000", "103856.000000", "103856.000000", "103856.000000", "103856.000000", "103856.000000", "103856.015000", "103856.015000", "103856.015000", "103856.015000", "103856.031000", "103856.031000", "103856.031000", "103856.031000", "103856.031000", "103856.031000", "103856.031000", "103856.046000", "103856.046000", "103856.046000", "103856.046000", "103916.000000", "103916.000000", "103916.000000", "103916.000000", "103916.015000", "103916.015000", "103916.015000", "103916.015000", "103916.015000", "103916.015000", "103916.031000", "103916.031000", "103916.031000", "103916.031000", "103916.031000", "103916.031000", "103916.031000", "103916.031000", "103916.046000", "103916.046000", "103938.359000", "103938.359000", "103938.359000", "103938.359000", "103938.375000", "103938.375000", "103938.375000", "103938.375000", "103938.375000", "103938.390000", "103938.390000", "103938.390000", "103938.390000", "103938.390000", "103938.390000", "103938.406000", "103938.406000", "103938.406000"],
      "InstanceNumber": [1, 2, 3, 4, 5, 6, 7, 8, 9, 10, 11, 12, 13, 14, 15, 16, 17, 18, 19, 20, 21, 22, 23, 24, 25, 26, 27, 28, 29, 30, 31, 32, 33, 34, 35, 36, 37, 38, 39, 40, 41, 42, 43, 44, 45, 46, 47, 48, 49, 50, 51, 52, 53, 54, 55, 56, 57, 58, 59, 60, 61, 62, 63, 64, 65, 66, 67, 68, 69, 70, 71, 72, 73, 74, 75, 76, 77, 78, 79, 80, 81, 82, 83, 84, 85, 86, 87, 88, 89, 90, 91, 92, 93, 94, 95, 96, 97, 98, 99, 100, 101, 102, 103, 104, 105, 106, 107, 108, 109, 110, 111, 112, 113, 114, 115, 116, 117, 118, 119, 120, 121, 122, 123, 124, 125, 126, 127, 128, 129, 130, 131, 132, 133, 134, 135, 136, 137, 138, 139, 140, 141, 142, 143, 144, 145, 146, 147, 148, 149, 150, 151, 152, 153, 154, 155, 156, 157, 158, 159, 160, 161, 162, 163, 164, 165, 166, 167, 168, 169, 170, 171, 172, 173, 174, 175, 176, 177, 178, 179, 180, 181, 182, 183, 184, 185, 186, 187, 188, 189, 190, 191, 192, 193, 194, 195, 196, 197, 198, 199, 200, 201, 202, 203, 204, 205, 206, 207, 208, 209, 210, 211, 212, 213, 214, 215, 216, 217, 218, 219, 220, 221, 222, 223, 224, 225, 226, 227, 228, 229, 230, 231, 232, 233, 234, 235, 236, 237, 238, 239, 240, 241, 242, 243, 244, 245, 246, 247, 248, 249, 250, 251, 252, 253, 254, 255, 256, 257, 258, 259, 260, 261, 262, 263, 264, 265, 266, 267, 268, 269, 270, 271, 272, 273, 274, 275, 276, 277, 278, 279, 280, 281, 282, 283, 284, 285, 286, 287, 288, 289, 290, 291, 292, 293, 294, 295, 296, 297, 298, 299, 300, 301, 302, 303, 304, 305, 306, 307, 308, 309, 310, 311, 312, 313, 314, 315, 316, 317, 318, 319, 320, 321, 322, 323, 324, 325, 326, 327, 328, 329, 330],
      "LargestImagePixelValue": [1926, 1902, 1948, 1914, 1926, 1910, 1924, 1936, 1905, 1953, 1966, 1923, 1930, 1940, 1933, 1931, 1963, 1943, 1938, 1908, 1952, 1938, 1901, 1892, 1905, 1903, 1938, 1923, 1977, 1933, 1967, 1928, 1917, 1923, 1937, 1941, 1934, 1947, 1958, 1959, 1956, 1940, 1936, 1958, 1969, 1972, 1947, 1953, 1938, 1964, 1949, 1991, 1984, 1943, 1961, 1940, 1972, 1966, 1955, 1980, 2009, 1987, 1974, 1981, 1973, 1996, 1979, 1961, 1975, 1990, 1969, 1973, 1972, 1960, 2007, 1974, 2018, 1968, 1965, 1963, 1980, 1958, 1969, 2003, 1984, 1996, 1974, 1977, 1970, 1985, 1983, 1978, 1992, 2010, 1995, 2005, 1998, 1997, 2001, 1968, 1975, 1988, 1986, 1999, 1975, 1991, 2009, 1987, 1960, 2030, 1977, 1981, 1982, 2024, 1970, 1984, 1951, 1967, 1963, 1963, 1921, 1864, 1859, 1901, 1959, 1956, 1927, 1971, 1963, 1836, 1825, 1849, 1874, 1873, 1877, 1867, 1897, 1917, 1859, 1879, 1882, 1855, 1892, 1884, 1894, 1860, 1864, 1867, 1856, 1841, 1868, 1875, 1880, 1846, 1865, 1872, 1878, 1880, 1858, 1873, 1888, 1908, 1891, 1871, 1878, 1889, 1891, 1882, 1932, 1921, 1888, 1927, 1904, 1906, 1892, 1889, 1910, 1902, 1923, 2017, 2050, 2006, 2019, 1963, 1957, 1986, 2005, 2009, 2022, 2025, 2024, 2064, 2041, 2043, 2049, 2037, 2032, 2048, 2053, 2055, 2036, 2064, 2052, 2045, 2030, 2017, 1941, 1964, 1997, 1997, 2009, 2015, 2032, 2022, 2067, 2045, 2042, 2062, 2046, 2049, 2061, 2017, 2016, 2018, 2042, 2047, 2020, 2019, 2055, 2058, 2080, 2071, 2049, 2052, 2032, 2063, 2073, 2051, 2049, 2057, 2079, 2038, 2051, 2032, 2033, 2048, 2070, 2038, 2033, 2017, 2054, 2040, 2025, 2049, 2065, 2064, 2032, 2025, 2044, 2042, 2044, 2040, 2041, 2070, 2048, 2028, 2018, 2037, 2026, 2036, 2033, 2037, 2024, 2039, 2015, 1999, 2017, 2020, 1996, 1996, 2024, 2013, 2031, 2028, 2027, 1996, 2011, 2043, 1968, 1966, 1998, 1991, 2014, 2037, 2000, 2012, 2013, 2011, 2010, 2035, 2011, 1999, 1990, 2019, 2011, 2030, 2019, 2013, 2018, 2013, 2001, 2023, 2013, 2006, 2042, 2000, 2004, 2005, 2011, 2014, 2001, 1989, 2013, 1971, 2015, 2006, 2034, 1995, 2056, 2023],
      "WindowCenter": [392.0, 390.0, 390.0, 390.0, 391.0, 392.0, 391.0, 392.0, 392.0, 392.0, 392.0, 392.0, 393.0, 393.0, 393.0, 394.0, 393.0, 392.0, 392.0, 391.0, 392.0, 392.0, 393.0, 393.0, 392.0, 390.0, 391.0, 390.0, 391.0, 391.0, 392.0, 393.0, 394.0, 394.0, 393.0, 391.0, 390.0, 389.0, 389.0, 390.0, 391.0, 392.0, 393.0, 392.0, 391.0, 390.0, 390.0, 389.0, 390.0, 390.0, 391.0, 392.0, 390.0, 391.0, 390.0, 390.0, 390.0, 390.0, 392.0, 392.0, 392.0, 394.0, 393.0, 394.0, 395.0, 394.0, 393.0, 393.0, 392.0, 391.0, 391.0, 391.0, 391.0, 391.0, 391.0, 390.0, 391.0, 391.0, 391.0, 392.0, 392.0, 392.0, 392.0, 393.0, 393.0, 392.0, 392.0, 393.0, 393.0, 392.0, 391.0, 391.0, 390.0, 390.0, 392.0, 392.0, 393.0, 394.0, 392.0, 391.0, 391.0, 390.0, 391.0, 392.0, 392.0, 392.0, 392.0, 391.0, 389.0, 389.0, 389.0, 389.0, 390.0, 392.0, 392.0, 393.0, 393.0, 392.0, 391.0, 391.0, 390.0, 389.0, 390.0, 391.0, 391.0, 390.0, 390.0, 389.0, 389.0, 388.0, 387.0, 388.0, 389.0, 390.0, 390.0, 391.0, 390.0, 390.0, 390.0, 389.0, 390.0, 390.0, 390.0, 390.0, 390.0, 389.0, 388.0, 387.0, 388.0, 388.0, 389.0, 390.0, 389.0, 388.0, 388.0, 388.0, 387.0, 387.0, 388.0, 388.0, 389.0, 389.0, 390.0, 390.0, 389.0, 389.0, 389.0, 388.0, 389.0, 389.0, 389.0, 390.0, 390.0, 389.0, 389.0, 389.0, 389.0, 389.0, 390.0, 392.0, 393.0, 394.0, 394.0, 394.0, 394.0, 393.0, 390.0, 387.0, 385.0, 384.0, 385.0, 386.0, 387.0, 388.0, 389.0, 389.0, 389.0, 389.0, 389.0, 389.0, 391.0, 391.0, 391.0, 392.0, 391.0, 390.0, 391.0, 390.0, 391.0, 390.0, 391.0, 390.0, 389.0, 389.0, 389.0, 389.0, 388.0, 390.0, 390.0, 389.0, 389.0, 388.0, 387.0, 385.0, 385.0, 387.0, 386.0, 387.0, 388.0, 388.0, 387.0, 387.0, 386.0, 387.0, 387.0, 388.0, 390.0, 390.0, 390.0, 388.0, 388.0, 387.0, 388.0, 388.0, 388.0, 388.0, 389.0, 389.0, 388.0, 389.0, 389.0, 388.0, 388.0, 388.0, 388.0, 387.0, 387.0, 388.0, 388.0, 388.0, 388.0, 388.0, 389.0, 388.0, 388.0, 388.0, 390.0, 390.0, 390.0, 390.0, 390.0, 390.0, 389.0, 389.0, 390.0, 389.0, 389.0, 389.0, 388.0, 388.0, 390.0, 389.0, 389.0, 388.0, 388.0, 386.0, 386.0, 386.0, 386.0, 387.0, 387.0, 388.0, 388.0, 388.0, 388.0, 387.0, 386.0, 386.0, 387.0, 387.0, 386.0, 386.0, 386.0, 385.0, 385.0, 386.0, 385.0, 387.0, 387.0, 388.0, 389.0, 391.0, 391.0, 391.0, 391.0, 391.0, 390.0, 390.0, 390.0, 390.0, 389.0, 389.0, 390.0, 388.0, 388.0, 388.0, 388.0, 388.0, 388.0, 389.0],
