{
  "AcquisitionMatrixPE": 104,
  "AcquisitionNumber": 1,
  "AcquisitionTime": "09:30:19.142500",
  "BandwidthPerPixelPhaseEncode": 43.054,
  "BaseResolution": 104,
  "CoilString": "C:E1_2",
  "ConversionSoftware": "dcm2niix",
  "ConversionSoftwareVersion": "v1.0.20191031",
  "DerivedVendorReportedEchoSpacing": 0.000669999,
  "DeviceSerialNumber": "18932",
  "DwellTime": 2.8e-06,
  "EchoTime": 0.02,
  "EffectiveEchoSpacing": 0.000223333,
  "FlipAngle": 30,
  "ImageComments": "Unaliased_MB2_PE2",
  "ImageOrientationPatientDICOM": [1, 0, 0, 0, 0.981959, -0.189095],
  "ImageType": [
    "ORIGINAL",
    "PRIMARY",
    "M",
    "MB",
    "ND",
    "MOSAIC"
],
  "ImagingFrequency": 297.229,
  "InPlanePhaseEncodingDirectionDICOM": "COL",
  "InstitutionAddress": "Richmond_Street_North_1151_London_409EF2_Ontario_CA_N6A_5B7",
  "InstitutionName": "Robarts_Reserch_Institute",
  "InstitutionalDepartmentName": "Department",
  "MRAcquisitionType": "2D",
  "MagneticFieldStrength": 6.98,
  "Manufacturer": "Siemens",
  "ManufacturersModelName": "Investigational_Device_7T",
  "Modality": "MR",
  "MultibandAccelerationFactor": 2,
  "ParallelReductionFactorInPlane": 3,
  "PartialFourier": 0.875,
  "PatientPosition": "HFS",
  "PercentPhaseFOV": 100,
  "PhaseEncodingDirection": "j-",
  "PhaseEncodingSteps": 91,
  "PhaseResolution": 1,
  "PixelBandwidth": 1717,
  "ProcedureStepDescription": "Diedrichsen_SeqRep4",
  "ProtocolName": "mbep2d_bold_mb2_p3_AP_2iso",
  "PulseSequenceDetails": "%CustomerSeq%_cmrr_mbep2d_bold",
  "ReceiveCoilName": "CFMM_8Tx32Rx",
  "ReconMatrixPE": 104,
  "RefLinesPE": 36,
  "RepetitionTime": 1,
  "ScanOptions": "PFP_FS",
  "ScanningSequence": "EP",
  "SequenceName": "epfid2d1_104",
  "SequenceVariant": "SK_SS",
  "SeriesDescription": "mbep2d_bold_mb2_p3_AP_2iso",
  "SeriesNumber": 16,
  "ShimSetting": [38, 2034, 46, 1324, 90, 41, 125, -176],
  "SliceThickness": 2,
  "SliceTiming": [0, 0.2275, 0.455, 0.6825, 0.9125, 0.135, 0.365, 0.5925, 0.82, 0.045, 0.2725, 0.5, 0.73, 0.9575, 0.1825, 0.41, 0.6375, 0.865, 0.09, 0.3175, 0.5475, 0.775, 0, 0.2275, 0.455, 0.6825, 0.9125, 0.135, 0.365, 0.5925, 0.82, 0.045, 0.2725, 0.5, 0.73, 0.9575, 0.1825, 0.41, 0.6375, 0.865, 0.09, 0.3175, 0.5475, 0.775],
  "SoftwareVersions": "syngo_MR_B17",
  "SpacingBetweenSlices": 2,
  "StationName": "MASTER",
  "TaskName": "dsp",
  "TotalReadoutTime": 0.0230033,
  "TxRefAmp": 120,
  "dcmmeta_affine": [
    [-2.0, 0.0, 0.0, 109.08474731445312],
    [0.0, 1.9639173746109009, -0.37819087505340576, -92.75724792480469],
    [0.0, 0.37819087505340576, 1.9639173746109009, -39.043243408203125],
    [0.0, 0.0, 0.0, 1.0]
],
  "dcmmeta_reorient_transform": [
    [0.0, -1.0, 0.0, 103.0],
    [1.0, 0.0, 0.0, 0.0],
    [0.0, 0.0, 1.0, 0.0],
    [0.0, 0.0, 0.0, 1.0]
],
  "dcmmeta_shape": [104, 104, 44, 330],
  "dcmmeta_slice_dim": 2,
  "dcmmeta_version": 0.6,
  "global": {
    "const": {
      "AcquisitionMatrix": [104, 0, 0, 104],
      "AngioFlag": "N",
      "BitsAllocated": 16,
      "BitsStored": 12,
      "Columns": 728,
      "EchoNumbers": 1,
      "EchoTime": 20.0,
      "EchoTrainLength": 1,
      "FlipAngle": 30.0,
      "HighBit": 11,
      "ImageOrientationPatient": [1.0, 0.0, 0.0, 0.0, 0.98195871320217, -0.1890954403637],
      "ImagePositionPatient": [-733.08474588394, -722.26848675595, 117.90597216194],
      "ImageType": [
        "ORIGINAL",
        "PRIMARY",
        "M",
        "MB",
        "ND",
        "MOSAIC"
],
      "ImagedNucleus": "1H",
      "ImagingFrequency": 297.228922,
      "InPlanePhaseEncodingDirection": "COL",
      "MRAcquisitionType": "2D",
      "MagneticFieldStrength": 6.98,
      "Manufacturer": "SIEMENS",
      "ManufacturerModelName": "Investigational_Device_7T",
      "Modality": "MR",
      "NumberOfAverages": 1.0,
      "NumberOfPhaseEncodingSteps": 91,
      "PercentPhaseFieldOfView": 100.0,
      "PercentSampling": 100.0,
      "PerformedProcedureStepStartTime": "091304.843000",
      "PhotometricInterpretation": "MONOCHROME2",
      "PixelBandwidth": 1717.0,
      "PixelRepresentation": 0,
      "PixelSpacing": [2.0, 2.0],
      "ProtocolName": "mbep2d_bold_mb2_p3_AP 2iso",
      "RepetitionTime": 1000.0,
      "Rows": 728,
      "SAR": 0.0,
      "SamplesPerPixel": 1,
      "ScanOptions": [
        "PFP",
        "FS"
],
      "ScanningSequence": "EP",
      "SequenceName": "epfid2d1_104",
      "SequenceVariant": [
        "SK",
        "SS"
],
      "SeriesDescription": "mbep2d_bold_mb2_p3_AP 2iso",
      "SeriesNumber": 16,
      "SeriesTime": "093052.015000",
      "SliceLocation": -20.798880860968,
      "SliceThickness": 2.0,
      "SmallestImagePixelValue": 0,
      "SoftwareVersions": "syngo MR B17",
      "SpacingBetweenSlices": 1.9999999720445,
      "SpecificCharacterSet": "ISO_IR 100",
      "StudyID": "1",
      "StudyTime": "091304.796000",
      "TransmitCoilName": "CFMM_8Tx32Rx",
      "VariableFlipAngleFlag": "N",
      "WindowCenter": 291.0,
      "WindowCenterWidthExplanation": "WINDOW1",
      "WindowWidth": 858.0,
      "dBdt": 0.0},
    "slices": {}
  },
  "time": {
    "samples": {
      "AcquisitionNumber": [1, 2, 3, 4, 5, 6, 7, 8, 9, 10, 11, 12, 13, 14, 15, 16, 17, 18, 19, 20, 21, 22, 23, 24, 25, 26, 27, 28, 29, 30, 31, 32, 33, 34, 35, 36, 37, 38, 39, 40, 41, 42, 43, 44, 45, 46, 47, 48, 49, 50, 51, 52, 53, 54, 55, 56, 57, 58, 59, 60, 61, 62, 63, 64, 65, 66, 67, 68, 69, 70, 71, 72, 73, 74, 75, 76, 77, 78, 79, 80, 81, 82, 83, 84, 85, 86, 87, 88, 89, 90, 91, 92, 93, 94, 95, 96, 97, 98, 99, 100, 101, 102, 103, 104, 105, 106, 107, 108, 109, 110, 111, 112, 113, 114, 115, 116, 117, 118, 119, 120, 121, 122, 123, 124, 125, 126, 127, 128, 129, 130, 131, 132, 133, 134, 135, 136, 137, 138, 139, 140, 141, 142, 143, 144, 145, 146, 147, 148, 149, 150, 151, 152, 153, 154, 155, 156, 157, 158, 159, 160, 161, 162, 163, 164, 165, 166, 167, 168, 169, 170, 171, 172, 173, 174, 175, 176, 177, 178, 179, 180, 181, 182, 183, 184, 185, 186, 187, 188, 189, 190, 191, 192, 193, 194, 195, 196, 197, 198, 199, 200, 201, 202, 203, 204, 205, 206, 207, 208, 209, 210, 211, 212, 213, 214, 215, 216, 217, 218, 219, 220, 221, 222, 223, 224, 225, 226, 227, 228, 229, 230, 231, 232, 233, 234, 235, 236, 237, 238, 239, 240, 241, 242, 243, 244, 245, 246, 247, 248, 249, 250, 251, 252, 253, 254, 255, 256, 257, 258, 259, 260, 261, 262, 263, 264, 265, 266, 267, 268, 269, 270, 271, 272, 273, 274, 275, 276, 277, 278, 279, 280, 281, 282, 283, 284, 285, 286, 287, 288, 289, 290, 291, 292, 293, 294, 295, 296, 297, 298, 299, 300, 301, 302, 303, 304, 305, 306, 307, 308, 309, 310, 311, 312, 313, 314, 315, 316, 317, 318, 319, 320, 321, 322, 323, 324, 325, 326, 327, 328, 329, 330],
      "AcquisitionTime": ["093019.142500", "093020.145000", "093021.150000", "093022.155000", "093023.157500", "093024.162500", "093025.165000", "093026.170000", "093027.175000", "093028.177500", "093029.182500", "093030.185000", "093031.190000", "093032.195000", "093033.197500", "093034.202500", "093035.205000", "093036.210000", "093037.215000", "093038.217500", "093039.222500", "093040.225000", "093041.230000", "093042.235000", "093043.237500", "093044.242500", "093045.245000", "093046.250000", "093047.255000", "093048.257500", "093049.262500", "093050.265000", "093051.270000", "093052.275000", "093053.277500", "093054.282500", "093055.287500", "093056.290000", "093057.295000", "093058.297500", "093059.302500", "093100.307500", "093101.310000", "093102.315000", "093103.317500", "093104.322500", "093105.327500", "093106.330000", "093107.335000", "093108.337500", "093109.342500", "093110.347500", "093111.350000", "093112.355000", "093113.357500", "093114.362500", "093115.367500", "093116.370000", "093117.375000", "093118.377500", "093119.382500", "093120.387500", "093121.390000", "093122.395000", "093123.400000", "093124.402500", "093125.407500", "093126.410000", "093127.415000", "093128.420000", "093129.422500", "093130.427500", "093131.430000", "093132.435000", "093133.440000", "093134.442500", "093135.447500", "093136.450000", "093137.455000", "093138.460000", "093139.462500", "093140.467500", "093141.470000", "093142.475000", "093143.480000", "093144.482500", "093145.487500", "093146.490000", "093147.495000", "093148.500000", "093149.502500", "093150.507500", "093151.510000", "093152.515000", "093153.520000", "093154.522500", "093155.527500", "093156.532500", "093157.535000", "093158.540000", "093159.542500", "093200.547500", "093201.552500", "093202.555000", "093203.560000", "093204.562500", "093205.567500", "093206.572500", "093207.575000", "093208.580000", "093209.582500", "093210.587500", "093211.592500", "093212.595000", "093213.600000", "093214.602500", "093215.607500", "093216.612500", "093217.615000", "093218.620000", "093219.622500", "093220.627500", "093221.632500", "093222.635000", "093223.640000", "093224.645000", "093225.647500", "093226.652500", "093227.655000", "093228.660000", "093229.665000", "093230.667500", "093231.672500", "093232.675000", "093233.680000", "093234.685000", "093235.687500", "093236.692500", "093237.695000", "093238.700000", "093239.705000", "093240.707500", "093241.712500", "093242.715000", "093243.720000", "093244.725000", "093245.727500", "093246.732500", "093247.735000", "093248.740000", "093249.745000", "093250.747500", "093251.752500", "093252.755000", "093253.760000", "093254.765000", "093255.767500", "093256.772500", "093257.777500", "093258.780000", "093259.785000", "093300.787500", "093301.792500", "093302.797500", "093303.800000", "093304.805000", "093305.807500", "093306.812500", "093307.817500", "093308.820000", "093309.825000", "093310.827500", "093311.832500", "093312.837500", "093313.840000", "093314.845000", "093315.847500", "093316.852500", "093317.857500", "093318.860000", "093319.865000", "093320.867500", "093321.872500", "093322.877500", "093323.880000", "093324.885000", "093325.887500", "093326.892500", "093327.897500", "093328.900000", "093329.905000", "093330.910000", "093331.912500", "093332.917500", "093333.920000", "093334.925000", "093335.930000", "093336.932500", "093337.937500", "093338.940000", "093339.945000", "093340.950000", "093341.952500", "093342.957500", "093343.960000", "093344.965000", "093345.970000", "093346.972500", "093347.977500", "093348.980000", "093349.985000", "093350.990000", "093351.992500", "093352.997500", "093354.000000", "093355.005000", "093356.010000", "093357.012500", "093358.017500", "093359.022500", "093400.025000", "093401.030000", "093402.032500", "093403.037500", "093404.042500", "093405.045000", "093406.050000", "093407.052500", "093408.057500", "093409.062500", "093410.065000", "093411.070000", "093412.072500", "093413.077500", "093414.082500", "093415.085000", "093416.090000", "093417.092500", "093418.097500", "093419.102500", "093420.105000", "093421.110000", "093422.112500", "093423.117500", "093424.122500", "093425.125000", "093426.130000", "093427.132500", "093428.137500", "093429.142500", "093430.145000", "093431.150000", "093432.155000", "093433.157500", "093434.162500", "093435.165000", "093436.170000", "093437.175000", "093438.177500", "093439.182500", "093440.185000", "093441.190000", "093442.195000", "093443.197500", "093444.202500", "093445.205000", "093446.210000", "093447.215000", "093448.217500", "093449.222500", "093450.225000", "093451.230000", "093452.235000", "093453.237500", "093454.242500", "093455.245000", "093456.250000", "093457.255000", "093458.257500", "093459.262500", "093500.265000", "093501.270000", "093502.275000", "093503.277500", "093504.282500", "093505.287500", "093506.290000", "093507.295000", "093508.297500", "093509.302500", "093510.307500", "093511.310000", "093512.315000", "093513.317500", "093514.322500", "093515.327500", "093516.330000", "093517.335000", "093518.337500", "093519.342500", "093520.347500", "093521.350000", "093522.355000", "093523.357500", "093524.362500", "093525.367500", "093526.370000", "093527.375000", "093528.377500", "093529.382500", "093530.387500", "093531.390000", "093532.395000", "093533.400000", "093534.402500", "093535.407500", "093536.410000", "093537.415000", "093538.420000", "093539.422500", "093540.427500", "093541.430000", "093542.435000", "093543.440000", "093544.442500", "093545.447500", "093546.450000", "093547.455000", "093548.460000", "093549.462500"],
      "ContentTime": ["093052.015000", "093052.015000", "093052.015000", "093052.015000", "093052.015000", "093052.031000", "093052.031000", "093052.031000", "093052.031000", "093052.031000", "093052.031000", "093052.046000", "093052.046000", "093052.046000", "093052.046000", "093052.046000", "093052.046000", "093052.062000", "093052.062000", "093052.062000", "093052.062000", "093052.062000", "093052.062000", "093052.062000", "093052.078000", "093052.078000", "093052.078000", "093052.078000", "093052.078000", "093052.093000", "093052.093000", "093111.984000", "093111.984000", "093111.984000", "093111.984000", "093111.984000", "093112.000000", "093112.000000", "093112.000000", "093112.000000", "093112.000000", "093112.000000", "093112.000000", "093112.000000", "093112.015000", "093112.015000", "093112.015000", "093112.015000", "093112.015000", "093112.015000", "093112.015000", "093131.984000", "093131.984000", "093131.984000", "093131.984000", "093131.984000", "093132.000000", "093132.000000", "093132.000000", "093132.000000", "093132.000000", "093132.000000", "093132.015000", "093132.015000", "093132.015000", "093132.015000", "093132.015000", "093132.015000", "093132.015000", "093132.015000", "093132.031000", "093151.984000", "093151.984000", "093151.984000", "093151.984000", "093151.984000", "093152.000000", "093152.000000", "093152.000000", "093152.000000", "093152.000000", "093152.015000", "093152.015000", "093152.015000", "093152.015000", "093152.015000", "093152.031000", "093152.031000", "093152.031000", "093152.031000", "093152.031000", "093211.984000", "093211.984000", "093211.984000", "093211.984000", "093211.984000", "093212.000000", "093212.000000", "093212.000000", "093212.000000", "093212.000000", "093212.000000", "093212.015000", "093212.015000", "093212.015000", "093212.015000", "093212.015000", "093212.015000", "093212.015000", "093212.031000", "093212.031000", "093231.984000", "093231.984000", "093231.984000", "093232.000000", "093232.000000", "093232.000000", "093232.000000", "093232.000000", "093232.000000", "093232.000000", "093232.015000", "093232.015000", "093232.015000", "093232.015000", "093232.015000", "093232.015000", "093232.015000", "093232.031000", "093232.031000", "093232.031000", "093251.984000", "093251.984000", "093251.984000", "093251.984000", "093251.984000", "093252.000000", "093252.000000", "093252.000000", "093252.000000", "093252.000000", "093252.000000", "093252.000000", "093252.000000", "093252.015000", "093252.015000", "093252.015000", "093252.015000", "093252.015000", "093252.031000", "093252.031000", "093311.984000", "093311.984000", "093311.984000", "093311.984000", "093311.984000", "093312.000000", "093312.000000", "093312.000000", "093312.000000", "093312.000000", "093312.000000", "093312.000000", "093312.000000", "093312.015000", "093312.015000", "093312.015000", "093312.015000", "093312.015000", "093312.015000", "093312.015000", "093331.984000", "093331.984000", "093331.984000", "093331.984000", "093332.000000", "093332.000000", "093332.000000", "093332.000000", "093332.000000", "093332.000000", "093332.000000", "093332.015000", "093332.015000", "093332.015000", "093332.031000", "093332.031000", "093332.031000", "093332.046000", "093332.046000", "093332.046000", "093351.984000", "093351.984000", "093351.984000", "093351.984000", "093352.000000", "093352.000000", "093352.000000", "093352.000000", "093352.000000", "093352.000000", "093352.000000", "093352.015000", "093352.015000", "093352.015000", "093352.015000", "093352.015000", "093352.015000", "093352.031000", "093352.031000", "093352.031000", "093411.984000", "093411.984000", "093411.984000", "093411.984000", "093411.984000", "093412.000000", "093412.000000", "093412.000000", "093412.000000", "093412.000000", "093412.000000", "093412.000000", "093412.000000", "093412.015000", "093412.015000", "093412.015000", "093412.015000", "093412.015000", "093412.015000", "093412.015000", "093431.984000", "093431.984000", "093431.984000", "093431.984000", "093431.984000", "093432.000000", "093432.000000", "093432.000000", "093432.000000", "093432.000000", "093432.000000", "093432.000000", "093432.000000", "093432.015000", "093432.015000", "093432.015000", "093432.015000", "093432.015000", "093432.015000", "093432.015000", "093451.984000", "093451.984000", "093451.984000", "093451.984000", "093451.984000", "093452.000000", "093452.000000", "093452.000000", "093452.000000", "093452.000000", "093452.000000", "093452.000000", "093452.000000", "093452.015000", "093452.015000", "093452.015000", "093452.015000", "093452.015000", "093452.015000", "093452.015000", "093511.984000", "093511.984000", "093511.984000", "093511.984000", "093511.984000", "093512.000000", "093512.000000", "093512.000000", "093512.000000", "093512.000000", "093512.000000", "093512.015000", "093512.015000", "093512.015000", "093512.015000", "093512.015000", "093512.015000", "093512.015000", "093512.015000", "093512.031000", "093531.984000", "093531.984000", "093531.984000", "093531.984000", "093531.984000", "093532.000000", "093532.000000", "093532.000000", "093532.000000", "093532.000000", "093532.000000", "093532.000000", "093532.015000", "093532.015000", "093532.015000", "093532.015000", "093532.015000", "093532.015000", "093532.015000", "093532.015000", "093555.875000", "093555.875000", "093555.875000", "093555.875000", "093555.875000", "093555.875000", "093555.890000", "093555.890000", "093555.890000", "093555.890000", "093555.890000", "093555.890000", "093555.890000", "093555.906000", "093555.906000", "093555.906000", "093555.906000", "093555.906000", "093555.921000"],
      "InstanceCreationTime": ["093052.015000", "093052.015000", "093052.015000", "093052.015000", "093052.015000", "093052.031000", "093052.031000", "093052.031000", "093052.031000", "093052.031000", "093052.031000", "093052.046000", "093052.046000", "093052.046000", "093052.046000", "093052.046000", "093052.046000", "093052.062000", "093052.062000", "093052.062000", "093052.062000", "093052.062000", "093052.062000", "093052.062000", "093052.078000", "093052.078000", "093052.078000", "093052.078000", "093052.078000", "093052.093000", "093052.093000", "093111.984000", "093111.984000", "093111.984000", "093111.984000", "093111.984000", "093112.000000", "093112.000000", "093112.000000", "093112.000000", "093112.000000", "093112.000000", "093112.000000", "093112.000000", "093112.015000", "093112.015000", "093112.015000", "093112.015000", "093112.015000", "093112.015000", "093112.015000", "093131.984000", "093131.984000", "093131.984000", "093131.984000", "093131.984000", "093132.000000", "093132.000000", "093132.000000", "093132.000000", "093132.000000", "093132.000000", "093132.015000", "093132.015000", "093132.015000", "093132.015000", "093132.015000", "093132.015000", "093132.015000", "093132.015000", "093132.031000", "093151.984000", "093151.984000", "093151.984000", "093151.984000", "093151.984000", "093152.000000", "093152.000000", "093152.000000", "093152.000000", "093152.000000", "093152.015000", "093152.015000", "093152.015000", "093152.015000", "093152.015000", "093152.031000", "093152.031000", "093152.031000", "093152.031000", "093152.031000", "093211.984000", "093211.984000", "093211.984000", "093211.984000", "093211.984000", "093212.000000", "093212.000000", "093212.000000", "093212.000000", "093212.000000", "093212.000000", "093212.015000", "093212.015000", "093212.015000", "093212.015000", "093212.015000", "093212.015000", "093212.015000", "093212.031000", "093212.031000", "093231.984000", "093231.984000", "093231.984000", "093232.000000", "093232.000000", "093232.000000", "093232.000000", "093232.000000", "093232.000000", "093232.000000", "093232.015000", "093232.015000", "093232.015000", "093232.015000", "093232.015000", "093232.015000", "093232.015000", "093232.031000", "093232.031000", "093232.031000", "093251.984000", "093251.984000", "093251.984000", "093251.984000", "093251.984000", "093252.000000", "093252.000000", "093252.000000", "093252.000000", "093252.000000", "093252.000000", "093252.000000", "093252.000000", "093252.015000", "093252.015000", "093252.015000", "093252.015000", "093252.015000", "093252.031000", "093252.031000", "093311.984000", "093311.984000", "093311.984000", "093311.984000", "093311.984000", "093312.000000", "093312.000000", "093312.000000", "093312.000000", "093312.000000", "093312.000000", "093312.000000", "093312.000000", "093312.015000", "093312.015000", "093312.015000", "093312.015000", "093312.015000", "093312.015000", "093312.015000", "093331.984000", "093331.984000", "093331.984000", "093331.984000", "093332.000000", "093332.000000", "093332.000000", "093332.000000", "093332.000000", "093332.000000", "093332.000000", "093332.015000", "093332.015000", "093332.015000", "093332.031000", "093332.031000", "093332.031000", "093332.046000", "093332.046000", "093332.046000", "093351.984000", "093351.984000", "093351.984000", "093351.984000", "093352.000000", "093352.000000", "093352.000000", "093352.000000", "093352.000000", "093352.000000", "093352.000000", "093352.015000", "093352.015000", "093352.015000", "093352.015000", "093352.015000", "093352.015000", "093352.031000", "093352.031000", "093352.031000", "093411.984000", "093411.984000", "093411.984000", "093411.984000", "093411.984000", "093412.000000", "093412.000000", "093412.000000", "093412.000000", "093412.000000", "093412.000000", "093412.000000", "093412.000000", "093412.015000", "093412.015000", "093412.015000", "093412.015000", "093412.015000", "093412.015000", "093412.015000", "093431.984000", "093431.984000", "093431.984000", "093431.984000", "093431.984000", "093432.000000", "093432.000000", "093432.000000", "093432.000000", "093432.000000", "093432.000000", "093432.000000", "093432.000000", "093432.015000", "093432.015000", "093432.015000", "093432.015000", "093432.015000", "093432.015000", "093432.015000", "093451.984000", "093451.984000", "093451.984000", "093451.984000", "093451.984000", "093452.000000", "093452.000000", "093452.000000", "093452.000000", "093452.000000", "093452.000000", "093452.000000", "093452.000000", "093452.015000", "093452.015000", "093452.015000", "093452.015000", "093452.015000", "093452.015000", "093452.015000", "093511.984000", "093511.984000", "093511.984000", "093511.984000", "093511.984000", "093512.000000", "093512.000000", "093512.000000", "093512.000000", "093512.000000", "093512.000000", "093512.015000", "093512.015000", "093512.015000", "093512.015000", "093512.015000", "093512.015000", "093512.015000", "093512.015000", "093512.031000", "093531.984000", "093531.984000", "093531.984000", "093531.984000", "093531.984000", "093532.000000", "093532.000000", "093532.000000", "093532.000000", "093532.000000", "093532.000000", "093532.000000", "093532.015000", "093532.015000", "093532.015000", "093532.015000", "093532.015000", "093532.015000", "093532.015000", "093532.015000", "093555.875000", "093555.875000", "093555.875000", "093555.875000", "093555.875000", "093555.875000", "093555.890000", "093555.890000", "093555.890000", "093555.890000", "093555.890000", "093555.890000", "093555.890000", "093555.906000", "093555.906000", "093555.906000", "093555.906000", "093555.906000", "093555.921000"],
      "InstanceNumber": [1, 2, 3, 4, 5, 6, 7, 8, 9, 10, 11, 12, 13, 14, 15, 16, 17, 18, 19, 20, 21, 22, 23, 24, 25, 26, 27, 28, 29, 30, 31, 32, 33, 34, 35, 36, 37, 38, 39, 40, 41, 42, 43, 44, 45, 46, 47, 48, 49, 50, 51, 52, 53, 54, 55, 56, 57, 58, 59, 60, 61, 62, 63, 64, 65, 66, 67, 68, 69, 70, 71, 72, 73, 74, 75, 76, 77, 78, 79, 80, 81, 82, 83, 84, 85, 86, 87, 88, 89, 90, 91, 92, 93, 94, 95, 96, 97, 98, 99, 100, 101, 102, 103, 104, 105, 106, 107, 108, 109, 110, 111, 112, 113, 114, 115, 116, 117, 118, 119, 120, 121, 122, 123, 124, 125, 126, 127, 128, 129, 130, 131, 132, 133, 134, 135, 136, 137, 138, 139, 140, 141, 142, 143, 144, 145, 146, 147, 148, 149, 150, 151, 152, 153, 154, 155, 156, 157, 158, 159, 160, 161, 162, 163, 164, 165, 166, 167, 168, 169, 170, 171, 172, 173, 174, 175, 176, 177, 178, 179, 180, 181, 182, 183, 184, 185, 186, 187, 188, 189, 190, 191, 192, 193, 194, 195, 196, 197, 198, 199, 200, 201, 202, 203, 204, 205, 206, 207, 208, 209, 210, 211, 212, 213, 214, 215, 216, 217, 218, 219, 220, 221, 222, 223, 224, 225, 226, 227, 228, 229, 230, 231, 232, 233, 234, 235, 236, 237, 238, 239, 240, 241, 242, 243, 244, 245, 246, 247, 248, 249, 250, 251, 252, 253, 254, 255, 256, 257, 258, 259, 260, 261, 262, 263, 264, 265, 266, 267, 268, 269, 270, 271, 272, 273, 274, 275, 276, 277, 278, 279, 280, 281, 282, 283, 284, 285, 286, 287, 288, 289, 290, 291, 292, 293, 294, 295, 296, 297, 298, 299, 300, 301, 302, 303, 304, 305, 306, 307, 308, 309, 310, 311, 312, 313, 314, 315, 316, 317, 318, 319, 320, 321, 322, 323, 324, 325, 326, 327, 328, 329, 330],
      "LargestImagePixelValue": [2071, 2135, 2105, 2079, 2082, 2069, 2089, 2098, 2151, 2118, 2077, 2049, 2043, 2062, 2032, 2041, 2047, 2044, 2064, 2091, 2069, 2067, 2086, 2082, 2065, 2084, 2090, 2084, 2041, 2053, 2045, 2028, 2054, 2044, 2045, 2036, 2031, 1984, 2022, 2021, 2039, 2010, 2043, 2057, 2068, 2053, 2033, 2031, 2052, 2055, 2053, 2055, 2045, 2020, 2055, 2038, 2058, 2040, 2066, 2068, 2049, 2059, 2070, 2094, 2099, 2051, 2048, 2048, 2052, 2033, 2055, 2064, 2054, 2036, 2062, 2051, 2058, 2075, 2045, 2045, 2063, 2072, 2043, 2064, 2045, 2061, 2074, 2071, 2030, 2057, 2060, 2052, 2060, 2026, 2045, 2068, 2063, 2081, 2058, 2038, 2079, 2081, 2059, 2047, 2063, 2042, 2055, 2046, 2029, 2101, 2031, 2068, 2094, 2097, 2082, 2078, 2089, 2088, 2026, 2104, 2106, 2088, 2078, 2118, 2041, 2072, 2074, 2077, 2088, 2066, 2082, 2096, 2059, 2123, 2033, 2065, 2065, 2087, 2051, 2074, 2070, 2072, 2063, 2073, 2159, 2147, 2143, 2124, 2114, 2104, 2117, 2131, 2126, 2103, 2033, 2063, 2083, 2025, 2035, 2045, 2051, 2087, 2096, 1950, 1985, 2038, 1996, 1984, 2002, 2028, 1995, 1997, 2009, 2012, 2041, 2086, 2010, 2017, 2017, 2000, 2000, 2025, 2006, 2015, 2004, 2042, 2018, 2026, 2027, 2059, 2045, 2017, 2024, 2054, 2067, 2061, 2044, 2032, 2044, 2077, 2044, 2016, 2066, 2115, 2105, 2054, 2030, 2029, 2034, 2034, 2035, 2057, 2010, 2106, 2099, 1995, 2028, 2037, 2006, 2032, 2036, 2019, 2029, 2049, 2035, 2049, 2045, 2065, 2002, 2048, 2027, 2036, 2053, 2020, 2062, 2085, 2043, 2054, 2036, 2060, 2072, 2066, 2072, 2043, 2054, 2068, 2052, 2057, 2145, 2154, 2176, 2138, 2120, 2103, 2119, 2094, 2119, 2134, 2123, 2130, 2121, 2091, 2100, 2103, 2128, 2118, 2107, 2115, 2135, 2139, 2110, 2137, 2138, 2129, 2082, 2126, 2029, 2100, 1965, 1995, 2086, 2118, 2095, 2094, 2080, 2105, 2114, 2097, 2107, 2105, 2069, 2111, 2181, 2135, 2141, 2146, 2141, 2137, 2134, 2143, 2120, 2125, 2123, 2084, 2115, 2094, 2118, 2117, 2075, 2057, 2065, 2069, 2076, 2093, 2099, 2085, 2094, 2076, 2104, 2100, 2113, 2072, 2079, 2089, 2066, 2066, 2064, 2060, 2031, 2044]
    },
    "slices": {}
  }
}