{
  "AcquisitionMatrixPE": 104,
  "AcquisitionNumber": 1,
  "AcquisitionTime": "10:51:31.167500",
  "BandwidthPerPixelPhaseEncode": 43.054,
  "BaseResolution": 104,
  "CoilString": "C:E1_2",
  "ConversionSoftware": "dcm2niix",
  "ConversionSoftwareVersion": "v1.0.20191031",
  "DerivedVendorReportedEchoSpacing": 0.000669999,
  "DeviceSerialNumber": "18932",
  "DwellTime": 2.8e-06,
  "EchoTime": 0.02,
  "EffectiveEchoSpacing": 0.000223333,
  "FlipAngle": 30,
  "ImageComments": "Unaliased_MB2_PE2",
  "ImageOrientationPatientDICOM": [1, 2e-16, 0, -2e-16, 0.982613, -0.185667],
  "ImageType": [
    "ORIGINAL",
    "PRIMARY",
    "M",
    "MB",
    "ND",
    "MOSAIC"
],
  "ImagingFrequency": 297.229,
  "InPlanePhaseEncodingDirectionDICOM": "COL",
  "InstitutionAddress": "Richmond_Street_North_1151_London_409EF2_Ontario_CA_N6A_5B7",
  "InstitutionName": "Robarts_Reserch_Institute",
  "InstitutionalDepartmentName": "Department",
  "MRAcquisitionType": "2D",
  "MagneticFieldStrength": 6.98,
  "Manufacturer": "Siemens",
  "ManufacturersModelName": "Investigational_Device_7T",
  "Modality": "MR",
  "MultibandAccelerationFactor": 2,
  "ParallelReductionFactorInPlane": 3,
  "PartialFourier": 0.875,
  "PatientPosition": "HFS",
  "PercentPhaseFOV": 100,
  "PhaseEncodingDirection": "j-",
  "PhaseEncodingSteps": 91,
  "PhaseResolution": 1,
  "PixelBandwidth": 1717,
  "ProcedureStepDescription": "Diedrichsen_SeqRep4",
  "ProtocolName": "mbep2d_bold_mb2_p3_AP_2iso",
  "PulseSequenceDetails": "%CustomerSeq%_cmrr_mbep2d_bold",
  "ReceiveCoilName": "CFMM_8Tx32Rx",
  "ReconMatrixPE": 104,
  "RefLinesPE": 36,
  "RepetitionTime": 1,
  "ScanOptions": "PFP_FS",
  "ScanningSequence": "EP",
  "SequenceName": "epfid2d1_104",
  "SequenceVariant": "SK_SS",
  "SeriesDescription": "mbep2d_bold_mb2_p3_AP_2iso",
  "SeriesNumber": 30,
  "ShimSetting": [18, 2052, 32, 1280, -95, -108, 282, -116],
  "SliceThickness": 2,
  "SliceTiming": [0, 0.23, 0.4575, 0.685, 0.9125, 0.1375, 0.365, 0.595, 0.8225, 0.0475, 0.275, 0.5025, 0.73, 0.96, 0.1825, 0.4125, 0.64, 0.8675, 0.0925, 0.32, 0.5475, 0.7775, 0, 0.23, 0.4575, 0.685, 0.9125, 0.1375, 0.365, 0.595, 0.8225, 0.0475, 0.275, 0.5025, 0.73, 0.96, 0.1825, 0.4125, 0.64, 0.8675, 0.0925, 0.32, 0.5475, 0.7775],
  "SoftwareVersions": "syngo_MR_B17",
  "SpacingBetweenSlices": 2,
  "StationName": "MASTER",
  "TaskName": "dsp",
  "TotalReadoutTime": 0.0230033,
  "TxRefAmp": 120,
  "dcmmeta_affine": [
    [-2.0, -4.000000067449534e-16, 7.426664444028518e-17, 105.4527816772461],
    [-4.000000067449534e-16, 1.9652255773544312, -0.37133321166038513, -104.59367370605469],
    [0.0, 0.37133321166038513, 1.9652255773544312, -53.975868225097656],
    [0.0, 0.0, 0.0, 1.0]
],
  "dcmmeta_reorient_transform": [
    [0.0, -1.0, 0.0, 103.0],
    [1.0, 0.0, 0.0, 0.0],
    [0.0, 0.0, 1.0, 0.0],
    [0.0, 0.0, 0.0, 1.0]
],
  "dcmmeta_shape": [104, 104, 44, 330],
  "dcmmeta_slice_dim": 2,
  "dcmmeta_version": 0.6,
  "global": {
    "const": {
      "AcquisitionMatrix": [104, 0, 0, 104],
      "AngioFlag": "N",
      "BitsAllocated": 16,
      "BitsStored": 12,
      "Columns": 728,
      "EchoNumbers": 1,
      "EchoTime": 20.0,
      "EchoTrainLength": 1,
      "FlipAngle": 30.0,
      "HighBit": 11,
      "ImageOrientationPatient": [1.0, 2e-16, 0.0, -2e-16, 0.9826127972607, -0.1856666115905],
      "ImagePositionPatient": [-729.45278453827, -710.97494464142, 100.12742092345],
      "ImageType": [
        "ORIGINAL",
        "PRIMARY",
        "M",
        "MB",
        "ND",
        "MOSAIC"
],
      "ImagedNucleus": "1H",
      "ImagingFrequency": 297.228847,
      "InPlanePhaseEncodingDirection": "COL",
      "MRAcquisitionType": "2D",
      "MagneticFieldStrength": 6.98,
      "Manufacturer": "SIEMENS",
      "ManufacturerModelName": "Investigational_Device_7T",
      "Modality": "MR",
      "NumberOfAverages": 1.0,
      "NumberOfPhaseEncodingSteps": 91,
      "PercentPhaseFieldOfView": 100.0,
      "PercentSampling": 100.0,
      "PerformedProcedureStepStartTime": "094408.468000",
      "PhotometricInterpretation": "MONOCHROME2",
      "PixelBandwidth": 1717.0,
      "PixelRepresentation": 0,
      "PixelSpacing": [2.0, 2.0],
      "ProtocolName": "mbep2d_bold_mb2_p3_AP 2iso",
      "RepetitionTime": 1000.0,
      "Rows": 728,
      "SAR": 0.0,
      "SamplesPerPixel": 1,
      "ScanOptions": [
        "PFP",
        "FS"
],
      "ScanningSequence": "EP",
      "SequenceName": "epfid2d1_104",
      "SequenceVariant": [
        "SK",
        "SS"
],
      "SeriesDescription": "mbep2d_bold_mb2_p3_AP 2iso",
      "SeriesNumber": 30,
      "SeriesTime": "105157.937000",
      "SliceLocation": -33.617823741243,
      "SliceThickness": 2.0,
      "SmallestImagePixelValue": 0,
      "SoftwareVersions": "syngo MR B17",
      "SpacingBetweenSlices": 1.9999999843164,
      "SpecificCharacterSet": "ISO_IR 100",
      "StudyID": "1",
      "StudyTime": "094408.390000",
      "TransmitCoilName": "CFMM_8Tx32Rx",
      "VariableFlipAngleFlag": "N",
      "WindowCenterWidthExplanation": "Algo1",
      "dBdt": 0.0},
    "slices": {}
  },
  "time": {
    "samples": {
      "AcquisitionNumber": [1, 2, 3, 4, 5, 6, 7, 8, 9, 10, 11, 12, 13, 14, 15, 16, 17, 18, 19, 20, 21, 22, 23, 24, 25, 26, 27, 28, 29, 30, 31, 32, 33, 34, 35, 36, 37, 38, 39, 40, 41, 42, 43, 44, 45, 46, 47, 48, 49, 50, 51, 52, 53, 54, 55, 56, 57, 58, 59, 60, 61, 62, 63, 64, 65, 66, 67, 68, 69, 70, 71, 72, 73, 74, 75, 76, 77, 78, 79, 80, 81, 82, 83, 84, 85, 86, 87, 88, 89, 90, 91, 92, 93, 94, 95, 96, 97, 98, 99, 100, 101, 102, 103, 104, 105, 106, 107, 108, 109, 110, 111, 112, 113, 114, 115, 116, 117, 118, 119, 120, 121, 122, 123, 124, 125, 126, 127, 128, 129, 130, 131, 132, 133, 134, 135, 136, 137, 138, 139, 140, 141, 142, 143, 144, 145, 146, 147, 148, 149, 150, 151, 152, 153, 154, 155, 156, 157, 158, 159, 160, 161, 162, 163, 164, 165, 166, 167, 168, 169, 170, 171, 172, 173, 174, 175, 176, 177, 178, 179, 180, 181, 182, 183, 184, 185, 186, 187, 188, 189, 190, 191, 192, 193, 194, 195, 196, 197, 198, 199, 200, 201, 202, 203, 204, 205, 206, 207, 208, 209, 210, 211, 212, 213, 214, 215, 216, 217, 218, 219, 220, 221, 222, 223, 224, 225, 226, 227, 228, 229, 230, 231, 232, 233, 234, 235, 236, 237, 238, 239, 240, 241, 242, 243, 244, 245, 246, 247, 248, 249, 250, 251, 252, 253, 254, 255, 256, 257, 258, 259, 260, 261, 262, 263, 264, 265, 266, 267, 268, 269, 270, 271, 272, 273, 274, 275, 276, 277, 278, 279, 280, 281, 282, 283, 284, 285, 286, 287, 288, 289, 290, 291, 292, 293, 294, 295, 296, 297, 298, 299, 300, 301, 302, 303, 304, 305, 306, 307, 308, 309, 310, 311, 312, 313, 314, 315, 316, 317, 318, 319, 320, 321, 322, 323, 324, 325, 326, 327, 328, 329, 330],
      "AcquisitionTime": ["105131.167500", "105132.172500", "105133.177500", "105134.180000", "105135.185000", "105136.187500", "105137.192500", "105138.197500", "105139.200000", "105140.205000", "105141.210000", "105142.212500", "105143.217500", "105144.220000", "105145.225000", "105146.230000", "105147.232500", "105148.237500", "105149.240000", "105150.245000", "105151.250000", "105152.252500", "105153.257500", "105154.260000", "105155.265000", "105156.270000", "105157.272500", "105158.277500", "105159.280000", "105200.285000", "105201.290000", "105202.292500", "105203.297500", "105204.300000", "105205.305000", "105206.310000", "105207.312500", "105208.317500", "105209.322500", "105210.325000", "105211.330000", "105212.332500", "105213.337500", "105214.342500", "105215.345000", "105216.350000", "105217.352500", "105218.357500", "105219.362500", "105220.365000", "105221.370000", "105222.372500", "105223.377500", "105224.382500", "105225.385000", "105226.390000", "105227.392500", "105228.397500", "105229.402500", "105230.405000", "105231.410000", "105232.412500", "105233.417500", "105234.422500", "105235.425000", "105236.430000", "105237.432500", "105238.437500", "105239.442500", "105240.445000", "105241.450000", "105242.455000", "105243.457500", "105244.462500", "105245.465000", "105246.470000", "105247.475000", "105248.477500", "105249.482500", "105250.485000", "105251.490000", "105252.495000", "105253.497500", "105254.502500", "105255.505000", "105256.510000", "105257.515000", "105258.517500", "105259.522500", "105300.525000", "105301.530000", "105302.535000", "105303.537500", "105304.542500", "105305.545000", "105306.550000", "105307.555000", "105308.557500", "105309.562500", "105310.565000", "105311.570000", "105312.575000", "105313.577500", "105314.582500", "105315.587500", "105316.590000", "105317.595000", "105318.597500", "105319.602500", "105320.607500", "105321.610000", "105322.615000", "105323.617500", "105324.622500", "105325.627500", "105326.630000", "105327.635000", "105328.637500", "105329.642500", "105330.647500", "105331.650000", "105332.655000", "105333.657500", "105334.662500", "105335.667500", "105336.670000", "105337.675000", "105338.677500", "105339.682500", "105340.687500", "105341.690000", "105342.695000", "105343.700000", "105344.702500", "105345.707500", "105346.710000", "105347.715000", "105348.720000", "105349.722500", "105350.727500", "105351.730000", "105352.735000", "105353.740000", "105354.742500", "105355.747500", "105356.750000", "105357.755000", "105358.760000", "105359.762500", "105400.767500", "105401.770000", "105402.775000", "105403.780000", "105404.782500", "105405.787500", "105406.790000", "105407.795000", "105408.800000", "105409.802500", "105410.807500", "105411.810000", "105412.815000", "105413.820000", "105414.822500", "105415.827500", "105416.832500", "105417.835000", "105418.840000", "105419.842500", "105420.847500", "105421.852500", "105422.855000", "105423.860000", "105424.862500", "105425.867500", "105426.872500", "105427.875000", "105428.880000", "105429.882500", "105430.887500", "105431.892500", "105432.895000", "105433.900000", "105434.902500", "105435.907500", "105436.912500", "105437.915000", "105438.920000", "105439.922500", "105440.927500", "105441.932500", "105442.935000", "105443.940000", "105444.942500", "105445.947500", "105446.952500", "105447.955000", "105448.960000", "105449.965000", "105450.967500", "105451.972500", "105452.975000", "105453.980000", "105454.985000", "105455.987500", "105456.992500", "105457.995000", "105459.000000", "105500.005000", "105501.007500", "105502.012500", "105503.015000", "105504.020000", "105505.025000", "105506.027500", "105507.032500", "105508.035000", "105509.040000", "105510.045000", "105511.047500", "105512.052500", "105513.055000", "105514.060000", "105515.065000", "105516.067500", "105517.072500", "105518.077500", "105519.080000", "105520.085000", "105521.087500", "105522.092500", "105523.097500", "105524.100000", "105525.105000", "105526.107500", "105527.112500", "105528.117500", "105529.120000", "105530.125000", "105531.127500", "105532.132500", "105533.137500", "105534.140000", "105535.145000", "105536.147500", "105537.152500", "105538.157500", "105539.160000", "105540.165000", "105541.167500", "105542.172500", "105543.177500", "105544.180000", "105545.185000", "105546.187500", "105547.192500", "105548.197500", "105549.200000", "105550.205000", "105551.210000", "105552.212500", "105553.217500", "105554.220000", "105555.225000", "105556.230000", "105557.232500", "105558.237500", "105559.240000", "105600.245000", "105601.250000", "105602.252500", "105603.257500", "105604.260000", "105605.265000", "105606.270000", "105607.272500", "105608.277500", "105609.280000", "105610.285000", "105611.290000", "105612.292500", "105613.297500", "105614.300000", "105615.305000", "105616.310000", "105617.312500", "105618.317500", "105619.322500", "105620.325000", "105621.330000", "105622.332500", "105623.337500", "105624.342500", "105625.345000", "105626.350000", "105627.352500", "105628.357500", "105629.362500", "105630.365000", "105631.370000", "105632.372500", "105633.377500", "105634.382500", "105635.385000", "105636.390000", "105637.392500", "105638.397500", "105639.402500", "105640.405000", "105641.410000", "105642.412500", "105643.417500", "105644.422500", "105645.425000", "105646.430000", "105647.432500", "105648.437500", "105649.442500", "105650.445000", "105651.450000", "105652.455000", "105653.457500", "105654.462500", "105655.465000", "105656.470000", "105657.475000", "105658.477500", "105659.482500", "105700.485000", "105701.490000"],
      "ContentTime": ["105157.937000", "105157.937000", "105157.953000", "105157.953000", "105157.953000", "105157.953000", "105157.953000", "105157.953000", "105157.953000", "105157.968000", "105157.968000", "105157.968000", "105157.968000", "105157.968000", "105157.968000", "105157.984000", "105157.984000", "105157.984000", "105157.984000", "105157.984000", "105157.984000", "105158.000000", "105158.000000", "105158.000000", "105158.000000", "105217.906000", "105217.906000", "105217.906000", "105217.906000", "105217.906000", "105217.921000", "105217.921000", "105217.921000", "105217.921000", "105217.921000", "105217.921000", "105217.921000", "105217.921000", "105217.937000", "105217.937000", "105217.937000", "105217.937000", "105217.937000", "105217.953000", "105217.953000", "105237.906000", "105237.906000", "105237.906000", "105237.906000", "105237.906000", "105237.921000", "105237.921000", "105237.921000", "105237.921000", "105237.921000", "105237.937000", "105237.937000", "105237.937000", "105237.937000", "105237.937000", "105237.937000", "105237.937000", "105237.937000", "105237.953000", "105237.953000", "105257.906000", "105257.906000", "105257.906000", "105257.906000", "105257.906000", "105257.921000", "105257.921000", "105257.921000", "105257.921000", "105257.921000", "105257.921000", "105257.921000", "105257.921000", "105257.937000", "105257.937000", "105257.937000", "105257.937000", "105257.937000", "105257.937000", "105257.937000", "105317.906000", "105317.906000", "105317.906000", "105317.906000", "105317.906000", "105317.921000", "105317.921000", "105317.921000", "105317.921000", "105317.921000", "105317.921000", "105317.921000", "105317.921000", "105317.937000", "105317.937000", "105317.937000", "105317.937000", "105317.937000", "105317.937000", "105317.937000", "105337.906000", "105337.906000", "105337.906000", "105337.921000", "105337.921000", "105337.937000", "105337.937000", "105337.937000", "105337.937000", "105337.937000", "105337.953000", "105337.953000", "105337.953000", "105337.953000", "105337.968000", "105337.968000", "105337.968000", "105337.968000", "105337.968000", "105337.968000", "105357.906000", "105357.906000", "105357.906000", "105357.906000", "105357.921000", "105357.921000", "105357.921000", "105357.921000", "105357.921000", "105357.921000", "105357.921000", "105357.937000", "105357.937000", "105357.937000", "105357.937000", "105357.937000", "105357.937000", "105357.953000", "105357.953000", "105357.953000", "105417.906000", "105417.906000", "105417.906000", "105417.906000", "105417.906000", "105417.921000", "105417.921000", "105417.921000", "105417.921000", "105417.921000", "105417.921000", "105417.921000", "105417.937000", "105417.937000", "105417.937000", "105417.937000", "105417.937000", "105417.937000", "105417.953000", "105417.953000", "105437.906000", "105437.906000", "105437.906000", "105437.906000", "105437.906000", "105437.921000", "105437.921000", "105437.921000", "105437.921000", "105437.921000", "105437.921000", "105437.921000", "105437.921000", "105437.937000", "105437.937000", "105437.937000", "105437.937000", "105437.937000", "105437.937000", "105437.937000", "105457.906000", "105457.906000", "105457.906000", "105457.906000", "105457.906000", "105457.921000", "105457.921000", "105457.921000", "105457.921000", "105457.921000", "105457.921000", "105457.921000", "105457.921000", "105457.937000", "105457.937000", "105457.937000", "105457.937000", "105457.937000", "105457.937000", "105457.937000", "105517.906000", "105517.906000", "105517.906000", "105517.921000", "105517.921000", "105517.921000", "105517.921000", "105517.921000", "105517.921000", "105517.921000", "105517.921000", "105517.937000", "105517.937000", "105517.937000", "105517.937000", "105517.937000", "105517.937000", "105517.937000", "105517.953000", "105517.953000", "105537.906000", "105537.906000", "105537.906000", "105537.906000", "105537.906000", "105537.921000", "105537.921000", "105537.921000", "105537.921000", "105537.921000", "105537.921000", "105537.921000", "105537.921000", "105537.937000", "105537.937000", "105537.937000", "105537.937000", "105537.937000", "105537.937000", "105537.937000", "105557.906000", "105557.906000", "105557.906000", "105557.921000", "105557.921000", "105557.921000", "105557.921000", "105557.921000", "105557.921000", "105557.921000", "105557.921000", "105557.937000", "105557.937000", "105557.937000", "105557.937000", "105557.937000", "105557.937000", "105557.953000", "105557.953000", "105557.953000", "105617.906000", "105617.906000", "105617.906000", "105617.906000", "105617.906000", "105617.921000", "105617.921000", "105617.921000", "105617.921000", "105617.937000", "105617.937000", "105617.937000", "105617.937000", "105617.937000", "105617.937000", "105617.937000", "105617.953000", "105617.953000", "105617.953000", "105617.953000", "105637.906000", "105637.906000", "105637.906000", "105637.906000", "105637.906000", "105637.921000", "105637.921000", "105637.921000", "105637.921000", "105637.921000", "105637.937000", "105637.937000", "105637.937000", "105637.937000", "105637.937000", "105637.937000", "105637.953000", "105637.953000", "105637.953000", "105637.953000", "105657.906000", "105657.906000", "105657.906000", "105657.906000", "105657.906000", "105657.921000", "105657.921000", "105657.921000", "105657.921000", "105657.921000", "105657.921000", "105657.921000", "105657.921000", "105657.937000", "105657.937000", "105657.937000", "105657.937000", "105657.937000", "105657.937000", "105657.937000", "105707.515000", "105707.531000", "105707.531000", "105707.531000", "105707.546000"],
      "InstanceCreationTime": ["105157.937000", "105157.937000", "105157.953000", "105157.953000", "105157.953000", "105157.953000", "105157.953000", "105157.953000", "105157.953000", "105157.968000", "105157.968000", "105157.968000", "105157.968000", "105157.968000", "105157.968000", "105157.984000", "105157.984000", "105157.984000", "105157.984000", "105157.984000", "105157.984000", "105158.000000", "105158.000000", "105158.000000", "105158.000000", "105217.906000", "105217.906000", "105217.906000", "105217.906000", "105217.906000", "105217.921000", "105217.921000", "105217.921000", "105217.921000", "105217.921000", "105217.921000", "105217.921000", "105217.921000", "105217.937000", "105217.937000", "105217.937000", "105217.937000", "105217.937000", "105217.953000", "105217.953000", "105237.906000", "105237.906000", "105237.906000", "105237.906000", "105237.906000", "105237.921000", "105237.921000", "105237.921000", "105237.921000", "105237.921000", "105237.937000", "105237.937000", "105237.937000", "105237.937000", "105237.937000", "105237.937000", "105237.937000", "105237.937000", "105237.953000", "105237.953000", "105257.906000", "105257.906000", "105257.906000", "105257.906000", "105257.906000", "105257.921000", "105257.921000", "105257.921000", "105257.921000", "105257.921000", "105257.921000", "105257.921000", "105257.921000", "105257.937000", "105257.937000", "105257.937000", "105257.937000", "105257.937000", "105257.937000", "105257.937000", "105317.906000", "105317.906000", "105317.906000", "105317.906000", "105317.906000", "105317.921000", "105317.921000", "105317.921000", "105317.921000", "105317.921000", "105317.921000", "105317.921000", "105317.921000", "105317.937000", "105317.937000", "105317.937000", "105317.937000", "105317.937000", "105317.937000", "105317.937000", "105337.906000", "105337.906000", "105337.906000", "105337.921000", "105337.921000", "105337.937000", "105337.937000", "105337.937000", "105337.937000", "105337.937000", "105337.953000", "105337.953000", "105337.953000", "105337.953000", "105337.968000", "105337.968000", "105337.968000", "105337.968000", "105337.968000", "105337.968000", "105357.906000", "105357.906000", "105357.906000", "105357.906000", "105357.921000", "105357.921000", "105357.921000", "105357.921000", "105357.921000", "105357.921000", "105357.921000", "105357.937000", "105357.937000", "105357.937000", "105357.937000", "105357.937000", "105357.937000", "105357.953000", "105357.953000", "105357.953000", "105417.906000", "105417.906000", "105417.906000", "105417.906000", "105417.906000", "105417.921000", "105417.921000", "105417.921000", "105417.921000", "105417.921000", "105417.921000", "105417.921000", "105417.937000", "105417.937000", "105417.937000", "105417.937000", "105417.937000", "105417.937000", "105417.953000", "105417.953000", "105437.906000", "105437.906000", "105437.906000", "105437.906000", "105437.906000", "105437.921000", "105437.921000", "105437.921000", "105437.921000", "105437.921000", "105437.921000", "105437.921000", "105437.921000", "105437.937000", "105437.937000", "105437.937000", "105437.937000", "105437.937000", "105437.937000", "105437.937000", "105457.906000", "105457.906000", "105457.906000", "105457.906000", "105457.906000", "105457.921000", "105457.921000", "105457.921000", "105457.921000", "105457.921000", "105457.921000", "105457.921000", "105457.921000", "105457.937000", "105457.937000", "105457.937000", "105457.937000", "105457.937000", "105457.937000", "105457.937000", "105517.906000", "105517.906000", "105517.906000", "105517.921000", "105517.921000", "105517.921000", "105517.921000", "105517.921000", "105517.921000", "105517.921000", "105517.921000", "105517.937000", "105517.937000", "105517.937000", "105517.937000", "105517.937000", "105517.937000", "105517.937000", "105517.953000", "105517.953000", "105537.906000", "105537.906000", "105537.906000", "105537.906000", "105537.906000", "105537.921000", "105537.921000", "105537.921000", "105537.921000", "105537.921000", "105537.921000", "105537.921000", "105537.921000", "105537.937000", "105537.937000", "105537.937000", "105537.937000", "105537.937000", "105537.937000", "105537.937000", "105557.906000", "105557.906000", "105557.906000", "105557.921000", "105557.921000", "105557.921000", "105557.921000", "105557.921000", "105557.921000", "105557.921000", "105557.921000", "105557.937000", "105557.937000", "105557.937000", "105557.937000", "105557.937000", "105557.937000", "105557.953000", "105557.953000", "105557.953000", "105617.906000", "105617.906000", "105617.906000", "105617.906000", "105617.906000", "105617.921000", "105617.921000", "105617.921000", "105617.921000", "105617.937000", "105617.937000", "105617.937000", "105617.937000", "105617.937000", "105617.937000", "105617.937000", "105617.953000", "105617.953000", "105617.953000", "105617.953000", "105637.906000", "105637.906000", "105637.906000", "105637.906000", "105637.906000", "105637.921000", "105637.921000", "105637.921000", "105637.921000", "105637.921000", "105637.937000", "105637.937000", "105637.937000", "105637.937000", "105637.937000", "105637.937000", "105637.953000", "105637.953000", "105637.953000", "105637.953000", "105657.906000", "105657.906000", "105657.906000", "105657.906000", "105657.906000", "105657.921000", "105657.921000", "105657.921000", "105657.921000", "105657.921000", "105657.921000", "105657.921000", "105657.921000", "105657.937000", "105657.937000", "105657.937000", "105657.937000", "105657.937000", "105657.937000", "105657.937000", "105707.515000", "105707.531000", "105707.531000", "105707.531000", "105707.546000"],
      "InstanceNumber": [1, 2, 3, 4, 5, 6, 7, 8, 9, 10, 11, 12, 13, 14, 15, 16, 17, 18, 19, 20, 21, 22, 23, 24, 25, 26, 27, 28, 29, 30, 31, 32, 33, 34, 35, 36, 37, 38, 39, 40, 41, 42, 43, 44, 45, 46, 47, 48, 49, 50, 51, 52, 53, 54, 55, 56, 57, 58, 59, 60, 61, 62, 63, 64, 65, 66, 67, 68, 69, 70, 71, 72, 73, 74, 75, 76, 77, 78, 79, 80, 81, 82, 83, 84, 85, 86, 87, 88, 89, 90, 91, 92, 93, 94, 95, 96, 97, 98, 99, 100, 101, 102, 103, 104, 105, 106, 107, 108, 109, 110, 111, 112, 113, 114, 115, 116, 117, 118, 119, 120, 121, 122, 123, 124, 125, 126, 127, 128, 129, 130, 131, 132, 133, 134, 135, 136, 137, 138, 139, 140, 141, 142, 143, 144, 145, 146, 147, 148, 149, 150, 151, 152, 153, 154, 155, 156, 157, 158, 159, 160, 161, 162, 163, 164, 165, 166, 167, 168, 169, 170, 171, 172, 173, 174, 175, 176, 177, 178, 179, 180, 181, 182, 183, 184, 185, 186, 187, 188, 189, 190, 191, 192, 193, 194, 195, 196, 197, 198, 199, 200, 201, 202, 203, 204, 205, 206, 207, 208, 209, 210, 211, 212, 213, 214, 215, 216, 217, 218, 219, 220, 221, 222, 223, 224, 225, 226, 227, 228, 229, 230, 231, 232, 233, 234, 235, 236, 237, 238, 239, 240, 241, 242, 243, 244, 245, 246, 247, 248, 249, 250, 251, 252, 253, 254, 255, 256, 257, 258, 259, 260, 261, 262, 263, 264, 265, 266, 267, 268, 269, 270, 271, 272, 273, 274, 275, 276, 277, 278, 279, 280, 281, 282, 283, 284, 285, 286, 287, 288, 289, 290, 291, 292, 293, 294, 295, 296, 297, 298, 299, 300, 301, 302, 303, 304, 305, 306, 307, 308, 309, 310, 311, 312, 313, 314, 315, 316, 317, 318, 319, 320, 321, 322, 323, 324, 325, 326, 327, 328, 329, 330],
      "LargestImagePixelValue": [2868, 2882, 2842, 2809, 2799, 2797, 2822, 2811, 2811, 2826, 2825, 2849, 2820, 2850, 2815, 2809, 2844, 2828, 2795, 2796, 2818, 2805, 2829, 2864, 2946, 2864, 2898, 2853, 2839, 2841, 2854, 2828, 2875, 2824, 2790, 2829, 2819, 2788, 2819, 2878, 2822, 2841, 2843, 2834, 2831, 2814, 2800, 2808, 2807, 2870, 2891, 2857, 2924, 2801, 2810, 2759, 2797, 2789, 2866, 2815, 2744, 2808, 2821, 2866, 2823, 2838, 2832, 2873, 2877, 2852, 2848, 2828, 2831, 2862, 2823, 2801, 2870, 2885, 2846, 2816, 2868, 2830, 2855, 2846, 2865, 2822, 2846, 2929, 2951, 2873, 2879, 2843, 2851, 2831, 2822, 2846, 2849, 2853, 2788, 2817, 2825, 2818, 2808, 2823, 2867, 2795, 2807, 2810, 2867, 2822, 2851, 2912, 2911, 2901, 2856, 2855, 2886, 2831, 2862, 2848, 2829, 2849, 2849, 2921, 2876, 2851, 2854, 2876, 2846, 2866, 2790, 2853, 2859, 2857, 2816, 2851, 2860, 2789, 2855, 2850, 2838, 2829, 2831, 2834, 2824, 2806, 2800, 2855, 2865, 2838, 2856, 2863, 2835, 2855, 2824, 2869, 2832, 2928, 2895, 2835, 2811, 2838, 2808, 2797, 2815, 2849, 2875, 2900, 2835, 2856, 2834, 2802, 2811, 2838, 2808, 2812, 2876, 2838, 2808, 2820, 2809, 2768, 2800, 2802, 2844, 2803, 2838, 2784, 2813, 2881, 2761, 2791, 2848, 2790, 2808, 2820, 2813, 2812, 2822, 2807, 2811, 2820, 2847, 2856, 2889, 2832, 2839, 2819, 2806, 2793, 2755, 2805, 2820, 2883, 2827, 2817, 2847, 2826, 2793, 2796, 2809, 2818, 2781, 2798, 2787, 2815, 2836, 2818, 2857, 2818, 2834, 2832, 2816, 2822, 2794, 2780, 2833, 2811, 2820, 2879, 2805, 2813, 2784, 2811, 2823, 2851, 2905, 2899, 2887, 2804, 2818, 2828, 2848, 2867, 2903, 2727, 2763, 2818, 2790, 2792, 2883, 2805, 2822, 2858, 2791, 2825, 2791, 2862, 2857, 2818, 2853, 2876, 2830, 2846, 2830, 2816, 2816, 2794, 2758, 2805, 2761, 2795, 2818, 2763, 2781, 2781, 2735, 2751, 2759, 2762, 2774, 2782, 2794, 2767, 2780, 2757, 2764, 2749, 2814, 2810, 2758, 2773, 2802, 2808, 2768, 2798, 2835, 2831, 2835, 2776, 2782, 2754, 2803, 2787, 2789, 2750, 2770, 2814, 2865, 2790, 2753, 2797, 2803, 2782, 2781, 2740, 2795, 2802, 2812, 2814],
      "WindowCenter": [442.0, 441.0, 441.0, 440.0, 439.0, 439.0, 439.0, 439.0, 440.0, 440.0, 439.0, 440.0, 440.0, 440.0, 441.0, 442.0, 442.0, 442.0, 441.0, 440.0, 440.0, 440.0, 439.0, 439.0, 440.0, 439.0, 441.0, 442.0, 443.0, 443.0, 442.0, 441.0, 441.0, 441.0, 440.0, 440.0, 440.0, 438.0, 438.0, 439.0, 438.0, 439.0, 439.0, 438.0, 438.0, 439.0, 438.0, 438.0, 438.0, 438.0, 439.0, 438.0, 439.0, 438.0, 439.0, 439.0, 438.0, 439.0, 439.0, 439.0, 438.0, 438.0, 440.0, 439.0, 439.0, 439.0, 438.0, 439.0, 439.0, 440.0, 439.0, 440.0, 439.0, 439.0, 440.0, 440.0, 441.0, 440.0, 440.0, 440.0, 441.0, 442.0, 442.0, 442.0, 442.0, 441.0, 441.0, 441.0, 441.0, 441.0, 442.0, 442.0, 443.0, 443.0, 442.0, 442.0, 442.0, 442.0, 442.0, 442.0, 441.0, 440.0, 440.0, 439.0, 440.0, 440.0, 439.0, 439.0, 440.0, 439.0, 439.0, 440.0, 440.0, 440.0, 441.0, 441.0, 441.0, 441.0, 440.0, 440.0, 439.0, 438.0, 438.0, 438.0, 438.0, 438.0, 438.0, 438.0, 438.0, 438.0, 438.0, 439.0, 440.0, 439.0, 439.0, 439.0, 439.0, 439.0, 440.0, 441.0, 441.0, 443.0, 443.0, 441.0, 441.0, 440.0, 439.0, 440.0, 440.0, 440.0, 441.0, 441.0, 441.0, 441.0, 440.0, 441.0, 441.0, 442.0, 442.0, 441.0, 441.0, 441.0, 441.0, 440.0, 440.0, 441.0, 441.0, 442.0, 442.0, 442.0, 442.0, 441.0, 441.0, 440.0, 439.0, 439.0, 440.0, 441.0, 441.0, 441.0, 442.0, 441.0, 440.0, 440.0, 440.0, 439.0, 441.0, 439.0, 439.0, 441.0, 440.0, 440.0, 441.0, 441.0, 440.0, 440.0, 439.0, 439.0, 439.0, 439.0, 439.0, 439.0, 441.0, 441.0, 441.0, 441.0, 441.0, 441.0, 440.0, 439.0, 440.0, 440.0, 440.0, 441.0, 441.0, 441.0, 443.0, 443.0, 442.0, 442.0, 442.0, 441.0, 440.0, 440.0, 439.0, 439.0, 438.0, 438.0, 439.0, 439.0, 440.0, 439.0, 440.0, 440.0, 441.0, 441.0, 441.0, 441.0, 441.0, 443.0, 442.0, 442.0, 442.0, 441.0, 441.0, 441.0, 442.0, 443.0, 444.0, 443.0, 443.0, 442.0, 441.0, 441.0, 442.0, 441.0, 442.0, 443.0, 442.0, 441.0, 442.0, 440.0, 441.0, 442.0, 441.0, 440.0, 439.0, 440.0, 438.0, 438.0, 439.0, 439.0, 440.0, 440.0, 440.0, 440.0, 440.0, 439.0, 439.0, 439.0, 438.0, 438.0, 439.0, 438.0, 439.0, 439.0, 439.0, 440.0, 441.0, 439.0, 439.0, 440.0, 440.0, 439.0, 440.0, 440.0, 439.0, 439.0, 438.0, 438.0, 438.0, 438.0, 438.0, 438.0, 438.0, 439.0, 440.0, 441.0, 442.0, 441.0, 441.0, 440.0, 441.0, 439.0, 439.0, 439.0, 438.0, 438.0, 439.0, 438.0, 438.0, 438.0, 439.0, 439.0, 439.0, 439.0, 439.0, 440.0, 440.0, 440.0],
