{
    "AcquisitionMatrixPE": 84,
    "AcquisitionNumber": 1,
    "AcquisitionTime": "12:44:8.885000",
    "BaseResolution": 168,
    "CoilString": "C:E1_2",
    "ConversionSoftware": "dcm2niix",
    "ConversionSoftwareVersion": "v1.0.20191031",
    "DeviceSerialNumber": "18932",
    "DwellTime": 4.9e-06,
    "EchoNumber": 2,
    "EchoTime": 0.0051,
    "EchoTime1": 0.00408,
    "EchoTime2": 0.0051,
    "FlipAngle": 35,
    "ImageOrientationPatientDICOM": [
        1,
        -2.05103e-10,
        0,
        2.05103e-10,
        1,
        0
    ],
    "ImageType": [
        "ORIGINAL",
        "PRIMARY",
        "P",
        "ND",
        "PHASE"
    ],
    "ImagingFrequency": 297.229,
    "InPlanePhaseEncodingDirectionDICOM": "ROW",
    "InstitutionAddress": "Richmond_Street_North_1151_London_409EF2_Ontario_CA_N6A_5B7",
    "InstitutionName": "Robarts_Reserch_Institute",
    "InstitutionalDepartmentName": "Department",
    "MRAcquisitionType": "2D",
    "MagneticFieldStrength": 6.98,
    "Manufacturer": "Siemens",
    "ManufacturersModelName": "Investigational_Device_7T",
    "Modality": "MR",
    "PartialFourier": 0.75,
    "PatientPosition": "HFS",
    "PercentPhaseFOV": 100,
    "PhaseEncodingDirection": "i",
    "PhaseEncodingSteps": 63,
    "PhaseResolution": 0.5,
    "PixelBandwidth": 607,
    "ProcedureStepDescription": "Diedrichsen_SeqRep4",
    "ProtocolName": "gre_field_mapping",
    "PulseSequenceDetails": "%SiemensSeq%_gre_field_mapping",
    "ReceiveCoilName": "CFMM_8Tx32Rx",
    "ReconMatrixPE": 168,
    "RepetitionTime": 0.475,
    "ScanOptions": "PFP",
    "ScanningSequence": "GR",
    "SequenceName": "fm2d2r",
    "SequenceVariant": "SP",
    "SeriesDescription": "gre_field_mapping",
    "SeriesNumber": 36,
    "ShimSetting": [
        25,
        2065,
        4,
        1582,
        -21,
        -142,
        282,
        -97
    ],
    "SliceThickness": 2.5,
    "SliceTiming": [
        0.23438,
        0,
        0.24219,
        0.00781,
        0.25,
        0.01562,
        0.25781,
        0.01562,
        0.26562,
        0.02344,
        0.27344,
        0.03125,
        0.28125,
        0.03906,
        0.28906,
        0.04688,
        0.29688,
        0.05469,
        0.30469,
        0.0625,
        0.3125,
        0.07031,
        0.32031,
        0.07812,
        0.32812,
        0.08594,
        0.33594,
        0.09375,
        0.34375,
        0.10156,
        0.35156,
        0.10938,
        0.35938,
        0.11719,
        0.36719,
        0.125,
        0.375,
        0.13281,
        0.38281,
        0.14062,
        0.38281,
        0.14844,
        0.39062,
        0.15625,
        0.39844,
        0.16406,
        0.40625,
        0.17188,
        0.41406,
        0.17969,
        0.42188,
        0.1875,
        0.42969,
        0.19531,
        0.4375,
        0.19531,
        0.44531,
        0.20312,
        0.45312,
        0.21094,
        0.46094,
        0.21875,
        0.46875,
        0.22656
    ],
    "SoftwareVersions": "syngo_MR_B17",
    "SpacingBetweenSlices": 2.5,
    "StationName": "MASTER",
    "TxRefAmp": 109.707,
    "dcmmeta_affine": [
        [
            -1.25,
            2.5637925116228644e-10,
            0.0,
            105.54801177978516
        ],
        [
            2.5637925116228644e-10,
            1.25,
            0.0,
            -106.77745056152344
        ],
        [
            0.0,
            0.0,
            2.5,
            -91.79368591308594
        ],
        [
            0.0,
            0.0,
            0.0,
            1.0
        ]
    ],
    "dcmmeta_reorient_transform": [
        [
            0.0,
            -1.0,
            0.0,
            167.0
        ],
        [
            1.0,
            0.0,
            0.0,
            0.0
        ],
        [
            0.0,
            0.0,
            -1.0,
            63.0
        ],
        [
            0.0,
            0.0,
            0.0,
            1.0
        ]
    ],
    "dcmmeta_shape": [
        168,
        168,
        64
    ],
    "dcmmeta_slice_dim": 2,
    "dcmmeta_version": 0.6,
    "global": {
        "const": {
            "AcquisitionMatrix": [
                0,
                168,
                84,
                0
            ],
            "AcquisitionNumber": 1,
            "AngioFlag": "N",
            "BitsAllocated": 16,
            "BitsStored": 12,
            "Columns": 168,
            "EchoNumbers": 2,
            "EchoTime": 5.1,
            "EchoTrainLength": 1,
            "FlipAngle": 35.0,
            "HighBit": 11,
            "ImageOrientationPatient": [
                1.0,
                -2.051034e-10,
                0.0,
                2.051034e-10,
                1.0,
                0.0
            ],
            "ImageType": [
                "ORIGINAL",
                "PRIMARY",
                "P",
                "ND"
            ],
            "ImagedNucleus": "1H",
            "ImagingFrequency": 297.22881,
            "InPlanePhaseEncodingDirection": "ROW",
            "MRAcquisitionType": "2D",
            "MagneticFieldStrength": 6.98,
            "Manufacturer": "SIEMENS",
            "ManufacturerModelName": "Investigational_Device_7T",
            "Modality": "MR",
            "NumberOfAverages": 1.0,
            "NumberOfPhaseEncodingSteps": 63,
            "PercentPhaseFieldOfView": 100.0,
            "PercentSampling": 50.0,
            "PerformedProcedureStepStartTime": "110711.390000",
            "PhotometricInterpretation": "MONOCHROME2",
            "PixelBandwidth": 607.0,
            "PixelRepresentation": 0,
            "PixelSpacing": [
                1.25,
                1.25
            ],
            "ProtocolName": "gre_field_mapping",
            "RepetitionTime": 475.0,
            "RescaleIntercept": -4096.0,
            "RescaleSlope": 2.0,
            "RescaleType": "US",
            "Rows": 168,
            "SAR": 0.0,
            "SamplesPerPixel": 1,
            "ScanOptions": "PFP",
            "ScanningSequence": "GR",
            "SequenceName": "fm2d2r",
            "SequenceVariant": "SP",
            "SeriesDescription": "gre_field_mapping",
            "SeriesNumber": 36,
            "SeriesTime": "124514.000000",
            "SliceThickness": 2.5,
            "SoftwareVersions": "syngo MR B17",
            "SpacingBetweenSlices": 2.5,
            "SpecificCharacterSet": "ISO_IR 100",
            "StudyID": "1",
            "StudyTime": "110711.328000",
            "TransmitCoilName": "CFMM_8Tx32Rx",
            "VariableFlipAngleFlag": "N",
            "WindowCenterWidthExplanation": "Algo1",
            "dBdt": 0.0
        },
        "slices": {
            "AcquisitionTime": [
                "124408.885000",
                "124408.647500",
                "124408.892500",
                "124408.655000",
                "124408.900000",
                "124408.662500",
                "124408.907500",
                "124408.667500",
                "124408.915000",
                "124408.675000",
                "124408.922500",
                "124408.682500",
                "124408.930000",
                "124408.690000",
                "124408.937500",
                "124408.697500",
                "124408.945000",
                "124408.705000",
                "124408.952500",
                "124408.712500",
                "124408.960000",
                "124408.720000",
                "124408.967500",
                "124408.727500",
                "124408.975000",
                "124408.735000",
                "124408.982500",
                "124408.742500",
                "124408.990000",
                "124408.750000",
                "124408.997500",
                "124408.757500",
                "124409.005000",
                "124408.765000",
                "124409.012500",
                "124408.772500",
                "124409.020000",
                "124408.780000",
                "124409.027500",
                "124408.787500",
                "124409.032500",
                "124408.795000",
                "124409.040000",
                "124408.802500",
                "124409.047500",
                "124408.810000",
                "124409.055000",
                "124408.817500",
                "124409.062500",
                "124408.825000",
                "124409.070000",
                "124408.832500",
                "124409.077500",
                "124408.840000",
                "124409.085000",
                "124408.847500",
                "124409.092500",
                "124408.855000",
                "124409.100000",
                "124408.862500",
                "124409.107500",
                "124408.870000",
                "124409.115000",
                "124408.877500"
            ],
            "ContentTime": [
                "124514.625000",
                "124514.015000",
                "124514.640000",
                "124514.015000",
                "124514.640000",
                "124514.015000",
                "124514.640000",
                "124514.015000",
                "124514.640000",
                "124514.015000",
                "124514.640000",
                "124514.015000",
                "124514.640000",
                "124514.031000",
                "124514.640000",
                "124514.031000",
                "124514.640000",
                "124514.031000",
                "124514.640000",
                "124514.031000",
                "124514.656000",
                "124514.046000",
                "124514.656000",
                "124514.046000",
                "124514.656000",
                "124514.046000",
                "124514.656000",
                "124514.046000",
                "124514.656000",
                "124514.046000",
                "124514.656000",
                "124514.062000",
                "124514.656000",
                "124514.062000",
                "124514.656000",
                "124514.062000",
                "124514.671000",
                "124514.062000",
                "124514.671000",
                "124514.062000",
                "124514.671000",
                "124514.062000",
                "124514.671000",
                "124514.062000",
                "124514.687000",
                "124514.062000",
                "124514.687000",
                "124514.609000",
                "124514.687000",
                "124514.625000",
                "124514.687000",
                "124514.625000",
                "124514.687000",
                "124514.625000",
                "124514.687000",
                "124514.625000",
                "124514.687000",
                "124514.625000",
                "124514.703000",
                "124514.625000",
                "124514.703000",
                "124514.625000",
                "124514.703000",
                "124514.625000"
            ],
            "CsaImage.ICE_Dims": [
                "X_2_1_1_1_1_1_33_1_1_1_1_105",
                "X_2_1_1_1_1_1_1_1_1_2_1_105",
                "X_2_1_1_1_1_1_34_1_1_3_1_105",
                "X_2_1_1_1_1_1_2_1_1_4_1_105",
                "X_2_1_1_1_1_1_35_1_1_5_1_105",
                "X_2_1_1_1_1_1_3_1_1_6_1_105",
                "X_2_1_1_1_1_1_36_1_1_7_1_105",
                "X_2_1_1_1_1_1_4_1_1_8_1_105",
                "X_2_1_1_1_1_1_37_1_1_9_1_105",
                "X_2_1_1_1_1_1_5_1_1_10_1_105",
                "X_2_1_1_1_1_1_38_1_1_11_1_105",
                "X_2_1_1_1_1_1_6_1_1_12_1_105",
                "X_2_1_1_1_1_1_39_1_1_13_1_105",
                "X_2_1_1_1_1_1_7_1_1_14_1_105",
                "X_2_1_1_1_1_1_40_1_1_15_1_105",
                "X_2_1_1_1_1_1_8_1_1_16_1_105",
                "X_2_1_1_1_1_1_41_1_1_17_1_105",
                "X_2_1_1_1_1_1_9_1_1_18_1_105",
                "X_2_1_1_1_1_1_42_1_1_19_1_105",
                "X_2_1_1_1_1_1_10_1_1_20_1_105",
                "X_2_1_1_1_1_1_43_1_1_21_1_105",
                "X_2_1_1_1_1_1_11_1_1_22_1_105",
                "X_2_1_1_1_1_1_44_1_1_23_1_105",
                "X_2_1_1_1_1_1_12_1_1_24_1_105",
                "X_2_1_1_1_1_1_45_1_1_25_1_105",
                "X_2_1_1_1_1_1_13_1_1_26_1_105",
                "X_2_1_1_1_1_1_46_1_1_27_1_105",
                "X_2_1_1_1_1_1_14_1_1_28_1_105",
                "X_2_1_1_1_1_1_47_1_1_29_1_105",
                "X_2_1_1_1_1_1_15_1_1_30_1_105",
                "X_2_1_1_1_1_1_48_1_1_31_1_105",
                "X_2_1_1_1_1_1_16_1_1_32_1_105",
                "X_2_1_1_1_1_1_49_1_1_33_1_105",
                "X_2_1_1_1_1_1_17_1_1_34_1_105",
                "X_2_1_1_1_1_1_50_1_1_35_1_105",
                "X_2_1_1_1_1_1_18_1_1_36_1_105",
                "X_2_1_1_1_1_1_51_1_1_37_1_105",
                "X_2_1_1_1_1_1_19_1_1_38_1_105",
                "X_2_1_1_1_1_1_52_1_1_39_1_105",
                "X_2_1_1_1_1_1_20_1_1_40_1_105",
                "X_2_1_1_1_1_1_53_1_1_41_1_105",
                "X_2_1_1_1_1_1_21_1_1_42_1_105",
                "X_2_1_1_1_1_1_54_1_1_43_1_105",
                "X_2_1_1_1_1_1_22_1_1_44_1_105",
                "X_2_1_1_1_1_1_55_1_1_45_1_105",
                "X_2_1_1_1_1_1_23_1_1_46_1_105",
                "X_2_1_1_1_1_1_56_1_1_47_1_105",
                "X_2_1_1_1_1_1_24_1_1_48_1_105",
                "X_2_1_1_1_1_1_57_1_1_49_1_105",
                "X_2_1_1_1_1_1_25_1_1_50_1_105",
                "X_2_1_1_1_1_1_58_1_1_51_1_105",
                "X_2_1_1_1_1_1_26_1_1_52_1_105",
                "X_2_1_1_1_1_1_59_1_1_53_1_105",
                "X_2_1_1_1_1_1_27_1_1_54_1_105",
                "X_2_1_1_1_1_1_60_1_1_55_1_105",
                "X_2_1_1_1_1_1_28_1_1_56_1_105",
                "X_2_1_1_1_1_1_61_1_1_57_1_105",
                "X_2_1_1_1_1_1_29_1_1_58_1_105",
                "X_2_1_1_1_1_1_62_1_1_59_1_105",
                "X_2_1_1_1_1_1_30_1_1_60_1_105",
                "X_2_1_1_1_1_1_63_1_1_61_1_105",
                "X_2_1_1_1_1_1_31_1_1_62_1_105",
                "X_2_1_1_1_1_1_64_1_1_63_1_105",
                "X_2_1_1_1_1_1_32_1_1_64_1_105"
            ],
            "CsaImage.ProtocolSliceNumber": [
                0,
                1,
                2,
                3,
                4,
                5,
                6,
                7,
                8,
                9,
                10,
                11,
                12,
                13,
                14,
                15,
                16,
                17,
                18,
                19,
                20,
                21,
                22,
                23,
                24,
                25,
                26,
                27,
                28,
                29,
                30,
                31,
                32,
                33,
                34,
                35,
                36,
                37,
                38,
                39,
                40,
                41,
                42,
                43,
                44,
                45,
                46,
                47,
                48,
                49,
                50,
                51,
                52,
                53,
                54,
                55,
                56,
                57,
                58,
                59,
                60,
                61,
                62,
                63
            ],
            "CsaImage.SliceMeasurementDuration": [
                59137.5,
                59135.0,
                59135.0,
                59135.0,
                59135.0,
                59135.0,
                59135.0,
                59137.5,
                59135.0,
                59137.5,
                59135.0,
                59137.5,
                59135.0,
                59137.5,
                59135.0,
                59137.5,
                59135.0,
                59137.5,
                59135.0,
                59137.5,
                59135.0,
                59137.5,
                59135.0,
                59137.5,
                59135.0,
                59137.5,
                59135.0,
                59137.5,
                59135.0,
                59137.5,
                59135.0,
                59137.5,
                59135.0,
                59137.5,
                59135.0,
                59137.5,
                59135.0,
                59137.5,
                59135.0,
                59137.5,
                59137.5,
                59137.5,
                59137.5,
                59137.5,
                59137.5,
                59137.5,
                59137.5,
                59137.5,
                59137.5,
                59137.5,
                59137.5,
                59137.5,
                59137.5,
                59137.5,
                59137.5,
                59137.5,
                59137.5,
                59137.5,
                59137.5,
                59137.5,
                59137.5,
                59137.5,
                59137.5,
                59137.5
            ],
            "CsaImage.SlicePosition_PCS": [
                [
                    -105.54801043,
                    -101.97254989,
                    -91.79368591
                ],
                [
                    -105.54801043,
                    -101.97254989,
                    -89.29368591
                ],
                [
                    -105.54801043,
                    -101.97254989,
                    -86.79368591
                ],
                [
                    -105.54801043,
                    -101.97254989,
                    -84.29368591
                ],
                [
                    -105.54801043,
                    -101.97254989,
                    -81.79368591
                ],
                [
                    -105.54801043,
                    -101.97254989,
                    -79.29368591
                ],
                [
                    -105.54801043,
                    -101.97254989,
                    -76.79368591
                ],
                [
                    -105.54801043,
                    -101.97254989,
                    -74.29368591
                ],
                [
                    -105.54801043,
                    -101.97254989,
                    -71.79368591
                ],
                [
                    -105.54801043,
                    -101.97254989,
                    -69.29368591
                ],
                [
                    -105.54801043,
                    -101.97254989,
                    -66.79368591
                ],
                [
                    -105.54801043,
                    -101.97254989,
                    -64.29368591
                ],
                [
                    -105.54801043,
                    -101.97254989,
                    -61.79368591
                ],
                [
                    -105.54801043,
                    -101.97254989,
                    -59.29368591
                ],
                [
                    -105.54801043,
                    -101.97254989,
                    -56.79368591
                ],
                [
                    -105.54801043,
                    -101.97254989,
                    -54.29368591
                ],
                [
                    -105.54801043,
                    -101.97254989,
                    -51.79368591
                ],
                [
                    -105.54801043,
                    -101.97254989,
                    -49.29368591
                ],
                [
                    -105.54801043,
                    -101.97254989,
                    -46.79368591
                ],
                [
                    -105.54801043,
                    -101.97254989,
                    -44.29368591
                ],
                [
                    -105.54801043,
                    -101.97254989,
                    -41.79368591
                ],
                [
                    -105.54801043,
                    -101.97254989,
                    -39.29368591
                ],
                [
                    -105.54801043,
                    -101.97254989,
                    -36.79368591
                ],
                [
                    -105.54801043,
                    -101.97254989,
                    -34.29368591
                ],
                [
                    -105.54801043,
                    -101.97254989,
                    -31.79368591
                ],
                [
                    -105.54801043,
                    -101.97254989,
                    -29.29368591
                ],
                [
                    -105.54801043,
                    -101.97254989,
                    -26.79368591
                ],
                [
                    -105.54801043,
                    -101.97254989,
                    -24.29368591
                ],
                [
                    -105.54801043,
                    -101.97254989,
                    -21.79368591
                ],
                [
                    -105.54801043,
                    -101.97254989,
                    -19.29368591
                ],
                [
                    -105.54801043,
                    -101.97254989,
                    -16.79368591
                ],
                [
                    -105.54801043,
                    -101.97254989,
                    -14.29368591
                ],
                [
                    -105.54801043,
                    -101.97254989,
                    -11.79368591
                ],
                [
                    -105.54801043,
                    -101.97254989,
                    -9.29368591
                ],
                [
                    -105.54801043,
                    -101.97254989,
                    -6.79368591
                ],
                [
                    -105.54801043,
                    -101.97254989,
                    -4.29368591
                ],
                [
                    -105.54801043,
                    -101.97254989,
                    -1.79368603
                ],
                [
                    -105.54801043,
                    -101.97254989,
                    0.70631397
                ],
                [
                    -105.54801043,
                    -101.97254989,
                    3.20631385
                ],
                [
                    -105.54801043,
                    -101.97254989,
                    5.70631409
                ],
                [
                    -105.54801043,
                    -101.97254989,
                    8.20631409
                ],
                [
                    -105.54801043,
                    -101.97254989,
                    10.70631409
                ],
                [
                    -105.54801043,
                    -101.97254989,
                    13.20631409
                ],
                [
                    -105.54801043,
                    -101.97254989,
                    15.70631409
                ],
                [
                    -105.54801043,
                    -101.97254989,
                    18.20631409
                ],
                [
                    -105.54801043,
                    -101.97254989,
                    20.70631409
                ],
                [
                    -105.54801043,
                    -101.97254989,
                    23.20631409
                ],
                [
                    -105.54801043,
                    -101.97254989,
                    25.70631409
                ],
                [
                    -105.54801043,
                    -101.97254989,
                    28.20631409
                ],
                [
                    -105.54801043,
                    -101.97254989,
                    30.70631409
                ],
                [
                    -105.54801043,
                    -101.97254989,
                    33.20631409
                ],
                [
                    -105.54801043,
                    -101.97254989,
                    35.70631409
                ],
                [
                    -105.54801043,
                    -101.97254989,
                    38.20631409
                ],
                [
                    -105.54801043,
                    -101.97254989,
                    40.70631409
                ],
                [
                    -105.54801043,
                    -101.97254989,
                    43.20631409
                ],
                [
                    -105.54801043,
                    -101.97254989,
                    45.70631409
                ],
                [
                    -105.54801043,
                    -101.97254989,
                    48.20631409
                ],
                [
                    -105.54801043,
                    -101.97254989,
                    50.70631409
                ],
                [
                    -105.54801043,
                    -101.97254989,
                    53.20631409
                ],
                [
                    -105.54801043,
                    -101.97254989,
                    55.70631409
                ],
                [
                    -105.54801043,
                    -101.97254989,
                    58.20631409
                ],
                [
                    -105.54801043,
                    -101.97254989,
                    60.70631409
                ],
                [
                    -105.54801043,
                    -101.97254989,
                    63.20631409
                ],
                [
                    -105.54801043,
                    -101.97254989,
                    65.70631409
                ]
            ],
            "CsaImage.TimeAfterStart": [
                0.7175,
                0.48,
                0.725,
                0.4875,
                0.7325,
                0.495,
                0.74,
                0.5025,
                0.7475,
                0.51,
                0.755,
                0.5175,
                0.7625,
                0.525,
                0.77,
                0.53,
                0.7775,
                0.5375,
                0.785,
                0.545,
                0.7925,
                0.5525,
                0.8,
                0.56,
                0.8075,
                0.5675,
                0.815,
                0.575,
                0.8225,
                0.5825,
                0.83,
                0.59,
                0.8375,
                0.5975,
                0.845,
                0.605,
                0.8525,
                0.6125,
                0.86,
                0.62,
                0.8675,
                0.6275,
                0.875,
                0.635,
                0.8825,
                0.6425,
                0.89,
                0.65,
                0.8975,
                0.6575,
                0.9025,
                0.665,
                0.91,
                0.6725,
                0.9175,
                0.68,
                0.925,
                0.6875,
                0.9325,
                0.695,
                0.94,
                0.7025,
                0.9475,
                0.71
            ],
            "ImagePositionPatient": [
                [
                    -105.54801043041,
                    -101.97254989378,
                    -91.793685913086
                ],
                [
                    -105.54801043041,
                    -101.97254989378,
                    -89.293685913086
                ],
                [
                    -105.54801043041,
                    -101.97254989378,
                    -86.793685913086
                ],
                [
                    -105.54801043041,
                    -101.97254989378,
                    -84.293685913086
                ],
                [
                    -105.54801043041,
                    -101.97254989378,
                    -81.793685913086
                ],
                [
                    -105.54801043041,
                    -101.97254989378,
                    -79.293685913086
                ],
                [
                    -105.54801043041,
                    -101.97254989378,
                    -76.793685913086
                ],
                [
                    -105.54801043041,
                    -101.97254989378,
                    -74.293685913086
                ],
                [
                    -105.54801043041,
                    -101.97254989378,
                    -71.793685913086
                ],
                [
                    -105.54801043041,
                    -101.97254989378,
                    -69.293685913086
                ],
                [
                    -105.54801043041,
                    -101.97254989378,
                    -66.793685913086
                ],
                [
                    -105.54801043041,
                    -101.97254989378,
                    -64.293685913086
                ],
                [
                    -105.54801043041,
                    -101.97254989378,
                    -61.793685913086
                ],
                [
                    -105.54801043041,
                    -101.97254989378,
                    -59.293685913086
                ],
                [
                    -105.54801043041,
                    -101.97254989378,
                    -56.793685913086
