{
  "AcquisitionMatrixPE": 104,
  "AcquisitionNumber": 1,
  "AcquisitionTime": "09:20:12.532500",
  "BandwidthPerPixelPhaseEncode": 43.054,
  "BaseResolution": 104,
  "CoilString": "C:E1_2",
  "ConversionSoftware": "dcm2niix",
  "ConversionSoftwareVersion": "v1.0.20191031",
  "DerivedVendorReportedEchoSpacing": 0.000669999,
  "DeviceSerialNumber": "18932",
  "DwellTime": 2.8e-06,
  "EchoTime": 0.02,
  "EffectiveEchoSpacing": 0.000223333,
  "FlipAngle": 30,
  "ImageComments": "Unaliased_MB2_PE2",
  "ImageOrientationPatientDICOM": [1, 0, 0, 0, 0.943223, -0.332161],
  "ImageType": [
    "ORIGINAL",
    "PRIMARY",
    "M",
    "MB",
    "ND",
    "MOSAIC"
],
  "ImagingFrequency": 297.229,
  "InPlanePhaseEncodingDirectionDICOM": "COL",
  "InstitutionAddress": "Richmond_Street_North_1151_London_409EF2_Ontario_CA_N6A_5B7",
  "InstitutionName": "Robarts_Reserch_Institute",
  "InstitutionalDepartmentName": "Department",
  "MRAcquisitionType": "2D",
  "MagneticFieldStrength": 6.98,
  "Manufacturer": "Siemens",
  "ManufacturersModelName": "Investigational_Device_7T",
  "Modality": "MR",
  "MultibandAccelerationFactor": 2,
  "ParallelReductionFactorInPlane": 3,
  "PartialFourier": 0.875,
  "PatientPosition": "HFS",
  "PercentPhaseFOV": 100,
  "PhaseEncodingDirection": "j-",
  "PhaseEncodingSteps": 91,
  "PhaseResolution": 1,
  "PixelBandwidth": 1717,
  "ProcedureStepDescription": "Diedrichsen_SeqRep4",
  "ProtocolName": "mbep2d_bold_mb2_p3_AP_2iso",
  "PulseSequenceDetails": "%CustomerSeq%_cmrr_mbep2d_bold",
  "ReceiveCoilName": "CFMM_8Tx32Rx",
  "ReconMatrixPE": 104,
  "RefLinesPE": 36,
  "RepetitionTime": 1,
  "ScanOptions": "PFP_FS",
  "ScanningSequence": "EP",
  "SequenceName": "epfid2d1_104",
  "SequenceVariant": "SK_SS",
  "SeriesDescription": "mbep2d_bold_mb2_p3_AP_2iso",
  "SeriesNumber": 15,
  "ShimSetting": [-5, 2173, 67, 1641, -25, 214, 198, -161],
  "SliceThickness": 2,
  "SliceTiming": [0, 0.23, 0.4575, 0.685, 0.9125, 0.1375, 0.365, 0.595, 0.8225, 0.0475, 0.275, 0.5025, 0.73, 0.96, 0.1825, 0.4125, 0.64, 0.8675, 0.0925, 0.32, 0.5475, 0.7775, 0, 0.23, 0.4575, 0.685, 0.9125, 0.1375, 0.365, 0.595, 0.8225, 0.0475, 0.275, 0.5025, 0.73, 0.96, 0.1825, 0.4125, 0.64, 0.8675, 0.0925, 0.32, 0.5475, 0.7775],
  "SoftwareVersions": "syngo_MR_B17",
  "SpacingBetweenSlices": 2,
  "StationName": "MASTER",
  "TaskName": "dsp",
  "TotalReadoutTime": 0.0230033,
  "TxRefAmp": 120,
  "dcmmeta_affine": [
    [-2.0, 0.0, 0.0, 108.35835266113281],
    [0.0, 1.8864452838897705, -0.6643223166465759, -99.36136627197266],
    [0.0, 0.6643223166465759, 1.8864452838897705, -51.97029495239258],
    [0.0, 0.0, 0.0, 1.0]
],
  "dcmmeta_reorient_transform": [
    [0.0, -1.0, 0.0, 103.0],
    [1.0, 0.0, 0.0, 0.0],
    [0.0, 0.0, 1.0, 0.0],
    [0.0, 0.0, 0.0, 1.0]
],
  "dcmmeta_shape": [104, 104, 44, 330],
  "dcmmeta_slice_dim": 2,
  "dcmmeta_version": 0.6,
  "global": {
    "const": {
      "AcquisitionMatrix": [104, 0, 0, 104],
      "AngioFlag": "N",
      "BitsAllocated": 16,
      "BitsStored": 12,
      "Columns": 728,
      "EchoNumbers": 1,
      "EchoTime": 20.0,
      "EchoTrainLength": 1,
      "FlipAngle": 30.0,
      "HighBit": 11,
      "ImageOrientationPatient": [1.0, 0.0, 0.0, 0.0, 0.94322265279987, -0.3321611465015],
      "ImagePositionPatient": [-732.35835361481, -683.51343778257, 223.72345564428],
      "ImageType": [
        "ORIGINAL",
        "PRIMARY",
        "M",
        "MB",
        "ND",
        "MOSAIC"
],
      "ImagedNucleus": "1H",
      "ImagingFrequency": 297.228747,
      "InPlanePhaseEncodingDirection": "COL",
      "MRAcquisitionType": "2D",
      "MagneticFieldStrength": 6.98,
      "Manufacturer": "SIEMENS",
      "ManufacturerModelName": "Investigational_Device_7T",
      "Modality": "MR",
      "NumberOfAverages": 1.0,
      "NumberOfPhaseEncodingSteps": 91,
      "PercentPhaseFieldOfView": 100.0,
      "PercentSampling": 100.0,
      "PerformedProcedureStepStartTime": "085045.000000",
      "PhotometricInterpretation": "MONOCHROME2",
      "PixelBandwidth": 1717.0,
      "PixelRepresentation": 0,
      "PixelSpacing": [2.0, 2.0],
      "ProtocolName": "mbep2d_bold_mb2_p3_AP 2iso",
      "RepetitionTime": 1000.0,
      "Rows": 728,
      "SAR": 0.0,
      "SamplesPerPixel": 1,
      "ScanOptions": [
        "PFP",
        "FS"
],
      "ScanningSequence": "EP",
      "SequenceName": "epfid2d1_104",
      "SequenceVariant": [
        "SK",
        "SS"
],
      "SeriesDescription": "mbep2d_bold_mb2_p3_AP 2iso",
      "SeriesNumber": 15,
      "SeriesTime": "092043.671000",
      "SliceLocation": -16.015575816667,
      "SliceThickness": 2.0,
      "SmallestImagePixelValue": 0,
      "SoftwareVersions": "syngo MR B17",
      "SpacingBetweenSlices": 2.0000000229338,
      "SpecificCharacterSet": "ISO_IR 100",
      "StudyID": "1",
      "StudyTime": "085044.875000",
      "TransmitCoilName": "CFMM_8Tx32Rx",
      "VariableFlipAngleFlag": "N",
      "WindowCenterWidthExplanation": "Algo1",
      "dBdt": 0.0},
    "slices": {}
  },
  "time": {
    "samples": {
      "AcquisitionNumber": [1, 2, 3, 4, 5, 6, 7, 8, 9, 10, 11, 12, 13, 14, 15, 16, 17, 18, 19, 20, 21, 22, 23, 24, 25, 26, 27, 28, 29, 30, 31, 32, 33, 34, 35, 36, 37, 38, 39, 40, 41, 42, 43, 44, 45, 46, 47, 48, 49, 50, 51, 52, 53, 54, 55, 56, 57, 58, 59, 60, 61, 62, 63, 64, 65, 66, 67, 68, 69, 70, 71, 72, 73, 74, 75, 76, 77, 78, 79, 80, 81, 82, 83, 84, 85, 86, 87, 88, 89, 90, 91, 92, 93, 94, 95, 96, 97, 98, 99, 100, 101, 102, 103, 104, 105, 106, 107, 108, 109, 110, 111, 112, 113, 114, 115, 116, 117, 118, 119, 120, 121, 122, 123, 124, 125, 126, 127, 128, 129, 130, 131, 132, 133, 134, 135, 136, 137, 138, 139, 140, 141, 142, 143, 144, 145, 146, 147, 148, 149, 150, 151, 152, 153, 154, 155, 156, 157, 158, 159, 160, 161, 162, 163, 164, 165, 166, 167, 168, 169, 170, 171, 172, 173, 174, 175, 176, 177, 178, 179, 180, 181, 182, 183, 184, 185, 186, 187, 188, 189, 190, 191, 192, 193, 194, 195, 196, 197, 198, 199, 200, 201, 202, 203, 204, 205, 206, 207, 208, 209, 210, 211, 212, 213, 214, 215, 216, 217, 218, 219, 220, 221, 222, 223, 224, 225, 226, 227, 228, 229, 230, 231, 232, 233, 234, 235, 236, 237, 238, 239, 240, 241, 242, 243, 244, 245, 246, 247, 248, 249, 250, 251, 252, 253, 254, 255, 256, 257, 258, 259, 260, 261, 262, 263, 264, 265, 266, 267, 268, 269, 270, 271, 272, 273, 274, 275, 276, 277, 278, 279, 280, 281, 282, 283, 284, 285, 286, 287, 288, 289, 290, 291, 292, 293, 294, 295, 296, 297, 298, 299, 300, 301, 302, 303, 304, 305, 306, 307, 308, 309, 310, 311, 312, 313, 314, 315, 316, 317, 318, 319, 320, 321, 322, 323, 324, 325, 326, 327, 328, 329, 330],
      "AcquisitionTime": ["092012.532500", "092013.537500", "092014.542500", "092015.545000", "092016.550000", "092017.552500", "092018.557500", "092019.562500", "092020.565000", "092021.570000", "092022.572500", "092023.577500", "092024.582500", "092025.585000", "092026.590000", "092027.595000", "092028.597500", "092029.602500", "092030.605000", "092031.610000", "092032.615000", "092033.617500", "092034.622500", "092035.625000", "092036.630000", "092037.635000", "092038.637500", "092039.642500", "092040.645000", "092041.650000", "092042.655000", "092043.657500", "092044.662500", "092045.665000", "092046.670000", "092047.675000", "092048.677500", "092049.682500", "092050.685000", "092051.690000", "092052.695000", "092053.697500", "092054.702500", "092055.707500", "092056.710000", "092057.715000", "092058.717500", "092059.722500", "092100.727500", "092101.730000", "092102.735000", "092103.737500", "092104.742500", "092105.747500", "092106.750000", "092107.755000", "092108.757500", "092109.762500", "092110.767500", "092111.770000", "092112.775000", "092113.777500", "092114.782500", "092115.787500", "092116.790000", "092117.795000", "092118.797500", "092119.802500", "092120.807500", "092121.810000", "092122.815000", "092123.817500", "092124.822500", "092125.827500", "092126.830000", "092127.835000", "092128.840000", "092129.842500", "092130.847500", "092131.850000", "092132.855000", "092133.860000", "092134.862500", "092135.867500", "092136.870000", "092137.875000", "092138.880000", "092139.882500", "092140.887500", "092141.890000", "092142.895000", "092143.900000", "092144.902500", "092145.907500", "092146.910000", "092147.915000", "092148.920000", "092149.922500", "092150.927500", "092151.930000", "092152.935000", "092153.940000", "092154.942500", "092155.947500", "092156.952500", "092157.955000", "092158.960000", "092159.962500", "092200.967500", "092201.972500", "092202.975000", "092203.980000", "092204.982500", "092205.987500", "092206.992500", "092207.995000", "092209.000000", "092210.002500", "092211.007500", "092212.012500", "092213.015000", "092214.020000", "092215.022500", "092216.027500", "092217.032500", "092218.035000", "092219.040000", "092220.042500", "092221.047500", "092222.052500", "092223.055000", "092224.060000", "092225.062500", "092226.067500", "092227.072500", "092228.075000", "092229.080000", "092230.085000", "092231.087500", "092232.092500", "092233.095000", "092234.100000", "092235.105000", "092236.107500", "092237.112500", "092238.115000", "092239.120000", "092240.125000", "092241.127500", "092242.132500", "092243.135000", "092244.140000", "092245.145000", "092246.147500", "092247.152500", "092248.155000", "092249.160000", "092250.165000", "092251.167500", "092252.172500", "092253.175000", "092254.180000", "092255.185000", "092256.187500", "092257.192500", "092258.195000", "092259.200000", "092300.205000", "092301.207500", "092302.212500", "092303.217500", "092304.220000", "092305.225000", "092306.227500", "092307.232500", "092308.237500", "092309.240000", "092310.245000", "092311.247500", "092312.252500", "092313.257500", "092314.260000", "092315.265000", "092316.267500", "092317.272500", "092318.277500", "092319.280000", "092320.285000", "092321.287500", "092322.292500", "092323.297500", "092324.300000", "092325.305000", "092326.307500", "092327.312500", "092328.317500", "092329.320000", "092330.325000", "092331.330000", "092332.332500", "092333.337500", "092334.340000", "092335.345000", "092336.350000", "092337.352500", "092338.357500", "092339.360000", "092340.365000", "092341.370000", "092342.372500", "092343.377500", "092344.380000", "092345.385000", "092346.390000", "092347.392500", "092348.397500", "092349.400000", "092350.405000", "092351.410000", "092352.412500", "092353.417500", "092354.420000", "092355.425000", "092356.430000", "092357.432500", "092358.437500", "092359.440000", "092400.445000", "092401.450000", "092402.452500", "092403.457500", "092404.462500", "092405.465000", "092406.470000", "092407.472500", "092408.477500", "092409.482500", "092410.485000", "092411.490000", "092412.492500", "092413.497500", "092414.502500", "092415.505000", "092416.510000", "092417.512500", "092418.517500", "092419.522500", "092420.525000", "092421.530000", "092422.532500", "092423.537500", "092424.542500", "092425.545000", "092426.550000", "092427.552500", "092428.557500", "092429.562500", "092430.565000", "092431.570000", "092432.572500", "092433.577500", "092434.582500", "092435.585000", "092436.590000", "092437.595000", "092438.597500", "092439.602500", "092440.605000", "092441.610000", "092442.615000", "092443.617500", "092444.622500", "092445.625000", "092446.630000", "092447.635000", "092448.637500", "092449.642500", "092450.645000", "092451.650000", "092452.655000", "092453.657500", "092454.662500", "092455.665000", "092456.670000", "092457.675000", "092458.677500", "092459.682500", "092500.685000", "092501.690000", "092502.695000", "092503.697500", "092504.702500", "092505.707500", "092506.710000", "092507.715000", "092508.717500", "092509.722500", "092510.727500", "092511.730000", "092512.735000", "092513.737500", "092514.742500", "092515.747500", "092516.750000", "092517.755000", "092518.757500", "092519.762500", "092520.767500", "092521.770000", "092522.775000", "092523.777500", "092524.782500", "092525.787500", "092526.790000", "092527.795000", "092528.797500", "092529.802500", "092530.807500", "092531.810000", "092532.815000", "092533.817500", "092534.822500", "092535.827500", "092536.830000", "092537.835000", "092538.840000", "092539.842500", "092540.847500", "092541.850000", "092542.855000"],
      "ContentTime": ["092043.671000", "092043.671000", "092043.687000", "092043.687000", "092043.687000", "092043.687000", "092043.687000", "092043.687000", "092043.687000", "092043.703000", "092043.703000", "092043.703000", "092043.703000", "092043.703000", "092043.703000", "092043.718000", "092043.718000", "092043.718000", "092043.718000", "092043.718000", "092043.734000", "092043.734000", "092043.734000", "092043.734000", "092043.734000", "092043.734000", "092043.734000", "092043.734000", "092043.750000", "092043.750000", "092103.640000", "092103.640000", "092103.640000", "092103.640000", "092103.656000", "092103.656000", "092103.656000", "092103.656000", "092103.656000", "092103.656000", "092103.656000", "092103.671000", "092103.671000", "092103.671000", "092103.671000", "092103.671000", "092103.671000", "092103.687000", "092103.687000", "092103.687000", "092123.640000", "092123.640000", "092123.640000", "092123.640000", "092123.640000", "092123.640000", "092123.656000", "092123.656000", "092123.656000", "092123.656000", "092123.656000", "092123.656000", "092123.656000", "092123.671000", "092123.671000", "092123.671000", "092123.671000", "092123.671000", "092123.671000", "092123.671000", "092143.640000", "092143.640000", "092143.640000", "092143.640000", "092143.640000", "092143.640000", "092143.656000", "092143.656000", "092143.656000", "092143.656000", "092143.656000", "092143.671000", "092143.671000", "092143.671000", "092143.671000", "092143.671000", "092143.671000", "092143.671000", "092143.687000", "092143.687000", "092203.640000", "092203.640000", "092203.640000", "092203.640000", "092203.640000", "092203.640000", "092203.656000", "092203.656000", "092203.656000", "092203.656000", "092203.656000", "092203.656000", "092203.671000", "092203.671000", "092203.671000", "092203.671000", "092203.671000", "092203.671000", "092203.671000", "092203.687000", "092223.640000", "092223.640000", "092223.640000", "092223.640000", "092223.640000", "092223.640000", "092223.656000", "092223.656000", "092223.656000", "092223.656000", "092223.656000", "092223.656000", "092223.656000", "092223.671000", "092223.671000", "092223.671000", "092223.671000", "092223.671000", "092223.671000", "092223.671000", "092243.640000", "092243.640000", "092243.640000", "092243.640000", "092243.656000", "092243.656000", "092243.656000", "092243.656000", "092243.656000", "092243.656000", "092243.656000", "092243.671000", "092243.671000", "092243.671000", "092243.671000", "092243.671000", "092243.671000", "092243.687000", "092243.687000", "092243.687000", "092303.640000", "092303.703000", "092303.703000", "092303.703000", "092303.703000", "092303.703000", "092303.718000", "092303.718000", "092303.718000", "092303.734000", "092303.734000", "092303.734000", "092303.734000", "092303.734000", "092303.734000", "092303.750000", "092303.750000", "092303.750000", "092303.750000", "092303.750000", "092323.640000", "092323.640000", "092323.640000", "092323.640000", "092323.656000", "092323.656000", "092323.656000", "092323.656000", "092323.656000", "092323.656000", "092323.656000", "092323.671000", "092323.671000", "092323.671000", "092323.671000", "092323.671000", "092323.671000", "092323.671000", "092323.671000", "092323.687000", "092343.640000", "092343.640000", "092343.640000", "092343.640000", "092343.640000", "092343.656000", "092343.656000", "092343.656000", "092343.656000", "092343.656000", "092343.656000", "092343.671000", "092343.671000", "092343.671000", "092343.671000", "092343.671000", "092343.671000", "092343.687000", "092343.687000", "092343.687000", "092403.640000", "092403.640000", "092403.640000", "092403.640000", "092403.640000", "092403.640000", "092403.656000", "092403.656000", "092403.656000", "092403.656000", "092403.656000", "092403.656000", "092403.656000", "092403.671000", "092403.671000", "092403.671000", "092403.671000", "092403.671000", "092403.671000", "092403.671000", "092423.640000", "092423.640000", "092423.640000", "092423.640000", "092423.640000", "092423.656000", "092423.656000", "092423.656000", "092423.656000", "092423.656000", "092423.656000", "092423.656000", "092423.671000", "092423.671000", "092423.671000", "092423.671000", "092423.671000", "092423.687000", "092423.687000", "092423.687000", "092443.640000", "092443.640000", "092443.640000", "092443.640000", "092443.640000", "092443.640000", "092443.656000", "092443.656000", "092443.656000", "092443.656000", "092443.656000", "092443.656000", "092443.656000", "092443.656000", "092443.671000", "092443.671000", "092443.671000", "092443.671000", "092443.671000", "092443.687000", "092503.640000", "092503.640000", "092503.640000", "092503.640000", "092503.640000", "092503.640000", "092503.656000", "092503.656000", "092503.656000", "092503.656000", "092503.656000", "092503.656000", "092503.656000", "092503.671000", "092503.671000", "092503.671000", "092503.671000", "092503.671000", "092503.671000", "092503.671000", "092523.640000", "092523.640000", "092523.640000", "092523.656000", "092523.656000", "092523.656000", "092523.656000", "092523.656000", "092523.656000", "092523.656000", "092523.671000", "092523.671000", "092523.671000", "092523.671000", "092523.671000", "092523.671000", "092523.671000", "092523.687000", "092523.687000", "092523.687000", "092548.484000", "092548.484000", "092548.484000", "092548.484000", "092548.484000", "092548.484000", "092548.500000", "092548.500000", "092548.500000", "092548.500000", "092548.500000", "092548.500000", "092548.500000", "092548.515000", "092548.515000", "092548.515000", "092548.515000", "092548.531000", "092548.531000", "092548.531000"],
      "InstanceCreationTime": ["092043.671000", "092043.671000", "092043.687000", "092043.687000", "092043.687000", "092043.687000", "092043.687000", "092043.687000", "092043.687000", "092043.703000", "092043.703000", "092043.703000", "092043.703000", "092043.703000", "092043.703000", "092043.718000", "092043.718000", "092043.718000", "092043.718000", "092043.718000", "092043.734000", "092043.734000", "092043.734000", "092043.734000", "092043.734000", "092043.734000", "092043.734000", "092043.734000", "092043.750000", "092043.750000", "092103.640000", "092103.640000", "092103.640000", "092103.640000", "092103.656000", "092103.656000", "092103.656000", "092103.656000", "092103.656000", "092103.656000", "092103.656000", "092103.671000", "092103.671000", "092103.671000", "092103.671000", "092103.671000", "092103.671000", "092103.687000", "092103.687000", "092103.687000", "092123.640000", "092123.640000", "092123.640000", "092123.640000", "092123.640000", "092123.640000", "092123.656000", "092123.656000", "092123.656000", "092123.656000", "092123.656000", "092123.656000", "092123.656000", "092123.671000", "092123.671000", "092123.671000", "092123.671000", "092123.671000", "092123.671000", "092123.671000", "092143.640000", "092143.640000", "092143.640000", "092143.640000", "092143.640000", "092143.640000", "092143.656000", "092143.656000", "092143.656000", "092143.656000", "092143.656000", "092143.671000", "092143.671000", "092143.671000", "092143.671000", "092143.671000", "092143.671000", "092143.671000", "092143.687000", "092143.687000", "092203.640000", "092203.640000", "092203.640000", "092203.640000", "092203.640000", "092203.640000", "092203.656000", "092203.656000", "092203.656000", "092203.656000", "092203.656000", "092203.656000", "092203.671000", "092203.671000", "092203.671000", "092203.671000", "092203.671000", "092203.671000", "092203.671000", "092203.687000", "092223.640000", "092223.640000", "092223.640000", "092223.640000", "092223.640000", "092223.640000", "092223.656000", "092223.656000", "092223.656000", "092223.656000", "092223.656000", "092223.656000", "092223.656000", "092223.671000", "092223.671000", "092223.671000", "092223.671000", "092223.671000", "092223.671000", "092223.671000", "092243.640000", "092243.640000", "092243.640000", "092243.640000", "092243.656000", "092243.656000", "092243.656000", "092243.656000", "092243.656000", "092243.656000", "092243.656000", "092243.671000", "092243.671000", "092243.671000", "092243.671000", "092243.671000", "092243.671000", "092243.687000", "092243.687000", "092243.687000", "092303.640000", "092303.703000", "092303.703000", "092303.703000", "092303.703000", "092303.703000", "092303.718000", "092303.718000", "092303.718000", "092303.734000", "092303.734000", "092303.734000", "092303.734000", "092303.734000", "092303.734000", "092303.750000", "092303.750000", "092303.750000", "092303.750000", "092303.750000", "092323.640000", "092323.640000", "092323.640000", "092323.640000", "092323.656000", "092323.656000", "092323.656000", "092323.656000", "092323.656000", "092323.656000", "092323.656000", "092323.671000", "092323.671000", "092323.671000", "092323.671000", "092323.671000", "092323.671000", "092323.671000", "092323.671000", "092323.687000", "092343.640000", "092343.640000", "092343.640000", "092343.640000", "092343.640000", "092343.656000", "092343.656000", "092343.656000", "092343.656000", "092343.656000", "092343.656000", "092343.671000", "092343.671000", "092343.671000", "092343.671000", "092343.671000", "092343.671000", "092343.687000", "092343.687000", "092343.687000", "092403.640000", "092403.640000", "092403.640000", "092403.640000", "092403.640000", "092403.640000", "092403.656000", "092403.656000", "092403.656000", "092403.656000", "092403.656000", "092403.656000", "092403.656000", "092403.671000", "092403.671000", "092403.671000", "092403.671000", "092403.671000", "092403.671000", "092403.671000", "092423.640000", "092423.640000", "092423.640000", "092423.640000", "092423.640000", "092423.656000", "092423.656000", "092423.656000", "092423.656000", "092423.656000", "092423.656000", "092423.656000", "092423.671000", "092423.671000", "092423.671000", "092423.671000", "092423.671000", "092423.687000", "092423.687000", "092423.687000", "092443.640000", "092443.640000", "092443.640000", "092443.640000", "092443.640000", "092443.640000", "092443.656000", "092443.656000", "092443.656000", "092443.656000", "092443.656000", "092443.656000", "092443.656000", "092443.656000", "092443.671000", "092443.671000", "092443.671000", "092443.671000", "092443.671000", "092443.687000", "092503.640000", "092503.640000", "092503.640000", "092503.640000", "092503.640000", "092503.640000", "092503.656000", "092503.656000", "092503.656000", "092503.656000", "092503.656000", "092503.656000", "092503.656000", "092503.671000", "092503.671000", "092503.671000", "092503.671000", "092503.671000", "092503.671000", "092503.671000", "092523.640000", "092523.640000", "092523.640000", "092523.656000", "092523.656000", "092523.656000", "092523.656000", "092523.656000", "092523.656000", "092523.656000", "092523.671000", "092523.671000", "092523.671000", "092523.671000", "092523.671000", "092523.671000", "092523.671000", "092523.687000", "092523.687000", "092523.687000", "092548.484000", "092548.484000", "092548.484000", "092548.484000", "092548.484000", "092548.484000", "092548.500000", "092548.500000", "092548.500000", "092548.500000", "092548.500000", "092548.500000", "092548.500000", "092548.515000", "092548.515000", "092548.515000", "092548.515000", "092548.531000", "092548.531000", "092548.531000"],
      "InstanceNumber": [1, 2, 3, 4, 5, 6, 7, 8, 9, 10, 11, 12, 13, 14, 15, 16, 17, 18, 19, 20, 21, 22, 23, 24, 25, 26, 27, 28, 29, 30, 31, 32, 33, 34, 35, 36, 37, 38, 39, 40, 41, 42, 43, 44, 45, 46, 47, 48, 49, 50, 51, 52, 53, 54, 55, 56, 57, 58, 59, 60, 61, 62, 63, 64, 65, 66, 67, 68, 69, 70, 71, 72, 73, 74, 75, 76, 77, 78, 79, 80, 81, 82, 83, 84, 85, 86, 87, 88, 89, 90, 91, 92, 93, 94, 95, 96, 97, 98, 99, 100, 101, 102, 103, 104, 105, 106, 107, 108, 109, 110, 111, 112, 113, 114, 115, 116, 117, 118, 119, 120, 121, 122, 123, 124, 125, 126, 127, 128, 129, 130, 131, 132, 133, 134, 135, 136, 137, 138, 139, 140, 141, 142, 143, 144, 145, 146, 147, 148, 149, 150, 151, 152, 153, 154, 155, 156, 157, 158, 159, 160, 161, 162, 163, 164, 165, 166, 167, 168, 169, 170, 171, 172, 173, 174, 175, 176, 177, 178, 179, 180, 181, 182, 183, 184, 185, 186, 187, 188, 189, 190, 191, 192, 193, 194, 195, 196, 197, 198, 199, 200, 201, 202, 203, 204, 205, 206, 207, 208, 209, 210, 211, 212, 213, 214, 215, 216, 217, 218, 219, 220, 221, 222, 223, 224, 225, 226, 227, 228, 229, 230, 231, 232, 233, 234, 235, 236, 237, 238, 239, 240, 241, 242, 243, 244, 245, 246, 247, 248, 249, 250, 251, 252, 253, 254, 255, 256, 257, 258, 259, 260, 261, 262, 263, 264, 265, 266, 267, 268, 269, 270, 271, 272, 273, 274, 275, 276, 277, 278, 279, 280, 281, 282, 283, 284, 285, 286, 287, 288, 289, 290, 291, 292, 293, 294, 295, 296, 297, 298, 299, 300, 301, 302, 303, 304, 305, 306, 307, 308, 309, 310, 311, 312, 313, 314, 315, 316, 317, 318, 319, 320, 321, 322, 323, 324, 325, 326, 327, 328, 329, 330],
      "LargestImagePixelValue": [2733, 2704, 2682, 2749, 2697, 2709, 2690, 2672, 2659, 2723, 2653, 2699, 2689, 2676, 2690, 2684, 2659, 2649, 2653, 2685, 2686, 2659, 2683, 2689, 2655, 2668, 2648, 2631, 2643, 2675, 2635, 2666, 2664, 2655, 2641, 2637, 2629, 2606, 2629, 2650, 2627, 2618, 2636, 2778, 2727, 2681, 2719, 2717, 2726, 2798, 2732, 2732, 2749, 2683, 2751, 2720, 2705, 2706, 2697, 2723, 2701, 2687, 2608, 2661, 2689, 2677, 2707, 2714, 2693, 2695, 2719, 2690, 2643, 2636, 2666, 2674, 2654, 2616, 2662, 2675, 2649, 2699, 2664, 2686, 2680, 2662, 2654, 2668, 2648, 2651, 2665, 2703, 2661, 2680, 2625, 2615, 2643, 2649, 2657, 2641, 2651, 2635, 2658, 2621, 2609, 2616, 2703, 2691, 2687, 2628, 2653, 2666, 2688, 2821, 2856, 2725, 2710, 2709, 2735, 2745, 2731, 2706, 2700, 2681, 2754, 2765, 2682, 2733, 2729, 2696, 2718, 2738, 2715, 2740, 2731, 2660, 2687, 2713, 2694, 2689, 2682, 2652, 2694, 2689, 2675, 2682, 2663, 2735, 2657, 2729, 2718, 2663, 2709, 2653, 2651, 2692, 2665, 2624, 2681, 2710, 2699, 2696, 2651, 2631, 2694, 2651, 2641, 2662, 2685, 2678, 2626, 2644, 2630, 2647, 2677, 2688, 2650, 2633, 2686, 2626, 2739, 2739, 2712, 2680, 2689, 2702, 2660, 2676, 2699, 2703, 2691, 2680, 2729, 2728, 2702, 2670, 2702, 2672, 2700, 2664, 2697, 2663, 2664, 2706, 2711, 2657, 2653, 2701, 2683, 2693, 2701, 2656, 2699, 2675, 2671, 2692, 2691, 2648, 2665, 2697, 2667, 2674, 2686, 2685, 2704, 2728, 2663, 2669, 2708, 2683, 2646, 2705, 2795, 2832, 2778, 2796, 2737, 2700, 2726, 2723, 2739, 2727, 2742, 2760, 2731, 2723, 2700, 2714, 2702, 2720, 2702, 2708, 2707, 2696, 2680, 2677, 2688, 2702, 2711, 2732, 2714, 2733, 2716, 2735, 2698, 2680, 2711, 2697, 2673, 2672, 2681, 2675, 2651, 2706, 2662, 2674, 2664, 2688, 2669, 2656, 2689, 2696, 2681, 2679, 2715, 2611, 2626, 2710, 2703, 2664, 2690, 2690, 2651, 2736, 2670, 2645, 2701, 2786, 2752, 2738, 2713, 2673, 2652, 2709, 2667, 2681, 2716, 2680, 2720, 2720, 2707, 2709, 2699, 2705, 2674, 2684, 2669, 2677, 2684, 2656, 2636, 2668, 2714, 2701, 2702, 2699, 2779, 2699, 2710, 2712],
      "WindowCenter": [460.0, 459.0, 458.0, 458.0, 458.0, 459.0, 459.0, 458.0, 457.0, 456.0, 455.0, 455.0, 455.0, 457.0, 458.0, 458.0, 458.0, 457.0, 457.0, 456.0, 457.0, 458.0, 459.0, 461.0, 462.0, 460.0, 460.0, 458.0, 457.0, 458.0, 458.0, 459.0, 459.0, 459.0, 459.0, 459.0, 458.0, 457.0, 456.0, 457.0, 458.0, 458.0, 459.0, 458.0, 459.0, 459.0, 460.0, 459.0, 459.0, 458.0, 457.0, 457.0, 459.0, 460.0, 462.0, 460.0, 459.0, 458.0, 459.0, 460.0, 460.0, 461.0, 460.0, 459.0, 458.0, 457.0, 457.0, 458.0, 459.0, 461.0, 461.0, 462.0, 462.0, 460.0, 459.0, 457.0, 456.0, 456.0, 458.0, 459.0, 460.0, 461.0, 459.0, 459.0, 458.0, 458.0, 458.0, 459.0, 459.0, 460.0, 460.0, 459.0, 459.0, 459.0, 459.0, 460.0, 461.0, 461.0, 460.0, 459.0, 458.0, 458.0, 459.0, 459.0, 459.0, 459.0, 459.0, 459.0, 458.0, 458.0, 458.0, 457.0, 457.0, 459.0, 461.0, 462.0, 462.0, 460.0, 459.0, 458.0, 457.0, 458.0, 459.0, 460.0, 462.0, 462.0, 460.0, 460.0, 459.0, 458.0, 458.0, 458.0, 459.0, 459.0, 460.0, 460.0, 460.0, 460.0, 459.0, 458.0, 457.0, 457.0, 458.0, 459.0, 460.0, 460.0, 459.0, 459.0, 459.0, 459.0, 460.0, 459.0, 459.0, 458.0, 457.0, 457.0, 457.0, 458.0, 460.0, 462.0, 463.0, 463.0, 463.0, 461.0, 459.0, 458.0, 457.0, 458.0, 459.0, 461.0, 462.0, 462.0, 461.0, 460.0, 459.0, 459.0, 459.0, 459.0, 459.0, 459.0, 460.0, 460.0, 461.0, 461.0, 461.0, 460.0, 458.0, 457.0, 457.0, 457.0, 458.0, 459.0, 462.0, 462.0, 462.0, 461.0, 460.0, 459.0, 460.0, 461.0, 462.0, 463.0, 462.0, 460.0, 459.0, 458.0, 458.0, 459.0, 460.0, 461.0, 461.0, 460.0, 460.0, 460.0, 459.0, 459.0, 460.0, 460.0, 461.0, 462.0, 462.0, 461.0, 460.0, 460.0, 459.0, 459.0, 459.0, 459.0, 461.0, 462.0, 460.0, 460.0, 459.0, 458.0, 459.0, 461.0, 462.0, 461.0, 460.0, 459.0, 457.0, 457.0, 458.0, 458.0, 459.0, 460.0, 460.0, 460.0, 459.0, 459.0, 459.0, 458.0, 460.0, 462.0, 462.0, 462.0, 460.0, 459.0, 459.0, 458.0, 458.0, 459.0, 460.0, 461.0, 463.0, 463.0, 462.0, 460.0, 458.0, 457.0, 456.0, 457.0, 459.0, 460.0, 462.0, 462.0, 461.0, 460.0, 460.0, 459.0, 459.0, 460.0, 461.0, 462.0, 462.0, 460.0, 459.0, 459.0, 459.0, 459.0, 460.0, 462.0, 462.0, 462.0, 461.0, 459.0, 458.0, 458.0, 459.0, 461.0, 462.0, 462.0, 460.0, 459.0, 457.0, 456.0, 456.0, 456.0, 458.0, 459.0, 459.0, 460.0, 461.0, 462.0, 462.0, 461.0, 460.0, 460.0, 460.0, 459.0, 460.0, 460.0, 461.0, 461.0, 461.0, 460.0, 459.0, 460.0, 460.0, 461.0],
