{
  "AcquisitionMatrixPE": 104,
  "AcquisitionNumber": 1,
  "AcquisitionTime": "09:56:19.987500",
  "BandwidthPerPixelPhaseEncode": 43.054,
  "BaseResolution": 104,
  "CoilString": "C:E1_2",
  "ConversionSoftware": "dcm2niix",
  "ConversionSoftwareVersion": "v1.0.20191031",
  "DerivedVendorReportedEchoSpacing": 0.000669999,
  "DeviceSerialNumber": "18932",
  "DwellTime": 2.8e-06,
  "EchoTime": 0.02,
  "EffectiveEchoSpacing": 0.000223333,
  "FlipAngle": 30,
  "ImageComments": "Unaliased_MB2_PE2",
  "ImageOrientationPatientDICOM": [1, 0, 0, 0, 0.943223, -0.332161],
  "ImageType": [
    "ORIGINAL",
    "PRIMARY",
    "M",
    "MB",
    "ND",
    "MOSAIC"
],
  "ImagingFrequency": 297.229,
  "InPlanePhaseEncodingDirectionDICOM": "COL",
  "InstitutionAddress": "Richmond_Street_North_1151_London_409EF2_Ontario_CA_N6A_5B7",
  "InstitutionName": "Robarts_Reserch_Institute",
  "InstitutionalDepartmentName": "Department",
  "MRAcquisitionType": "2D",
  "MagneticFieldStrength": 6.98,
  "Manufacturer": "Siemens",
  "ManufacturersModelName": "Investigational_Device_7T",
  "Modality": "MR",
  "MultibandAccelerationFactor": 2,
  "ParallelReductionFactorInPlane": 3,
  "PartialFourier": 0.875,
  "PatientPosition": "HFS",
  "PercentPhaseFOV": 100,
  "PhaseEncodingDirection": "j-",
  "PhaseEncodingSteps": 91,
  "PhaseResolution": 1,
  "PixelBandwidth": 1717,
  "ProcedureStepDescription": "Diedrichsen_SeqRep4",
  "ProtocolName": "mbep2d_bold_mb2_p3_AP_2iso",
  "PulseSequenceDetails": "%CustomerSeq%_cmrr_mbep2d_bold",
  "ReceiveCoilName": "CFMM_8Tx32Rx",
  "ReconMatrixPE": 104,
  "RefLinesPE": 36,
  "RepetitionTime": 1,
  "ScanOptions": "PFP_FS",
  "ScanningSequence": "EP",
  "SequenceName": "epfid2d1_104",
  "SequenceVariant": "SK_SS",
  "SeriesDescription": "mbep2d_bold_mb2_p3_AP_2iso",
  "SeriesNumber": 28,
  "ShimSetting": [-5, 2173, 67, 1641, -25, 214, 198, -161],
  "SliceThickness": 2,
  "SliceTiming": [0, 0.2275, 0.4575, 0.685, 0.9125, 0.1375, 0.365, 0.5925, 0.82, 0.045, 0.275, 0.5025, 0.73, 0.9575, 0.1825, 0.41, 0.6375, 0.8675, 0.0925, 0.32, 0.5475, 0.775, 0, 0.2275, 0.4575, 0.685, 0.9125, 0.1375, 0.365, 0.5925, 0.82, 0.045, 0.275, 0.5025, 0.73, 0.9575, 0.1825, 0.41, 0.6375, 0.8675, 0.0925, 0.32, 0.5475, 0.775],
  "SoftwareVersions": "syngo_MR_B17",
  "SpacingBetweenSlices": 2,
  "StationName": "MASTER",
  "TaskName": "dsp",
  "TotalReadoutTime": 0.0230033,
  "TxRefAmp": 120,
  "dcmmeta_affine": [
    [-2.0, 0.0, 0.0, 108.35835266113281],
    [0.0, 1.8864452838897705, -0.6643223166465759, -99.36136627197266],
    [0.0, 0.6643223166465759, 1.8864452838897705, -51.97029495239258],
    [0.0, 0.0, 0.0, 1.0]
],
  "dcmmeta_reorient_transform": [
    [0.0, -1.0, 0.0, 103.0],
    [1.0, 0.0, 0.0, 0.0],
    [0.0, 0.0, 1.0, 0.0],
    [0.0, 0.0, 0.0, 1.0]
],
  "dcmmeta_shape": [104, 104, 44, 330],
  "dcmmeta_slice_dim": 2,
  "dcmmeta_version": 0.6,
  "global": {
    "const": {
      "AcquisitionMatrix": [104, 0, 0, 104],
      "AngioFlag": "N",
      "BitsAllocated": 16,
      "BitsStored": 12,
      "Columns": 728,
      "EchoNumbers": 1,
      "EchoTime": 20.0,
      "EchoTrainLength": 1,
      "FlipAngle": 30.0,
      "HighBit": 11,
      "ImageOrientationPatient": [1.0, 0.0, 0.0, 0.0, 0.94322265279987, -0.3321611465015],
      "ImagePositionPatient": [-732.35835361481, -683.51343778257, 223.72345564428],
      "ImageType": [
        "ORIGINAL",
        "PRIMARY",
        "M",
        "MB",
        "ND",
        "MOSAIC"
],
      "ImagedNucleus": "1H",
      "ImagingFrequency": 297.228786,
      "InPlanePhaseEncodingDirection": "COL",
      "MRAcquisitionType": "2D",
      "MagneticFieldStrength": 6.98,
      "Manufacturer": "SIEMENS",
      "ManufacturerModelName": "Investigational_Device_7T",
      "Modality": "MR",
      "NumberOfAverages": 1.0,
      "NumberOfPhaseEncodingSteps": 91,
      "PercentPhaseFieldOfView": 100.0,
      "PercentSampling": 100.0,
      "PerformedProcedureStepStartTime": "085045.000000",
      "PhotometricInterpretation": "MONOCHROME2",
      "PixelBandwidth": 1717.0,
      "PixelRepresentation": 0,
      "PixelSpacing": [2.0, 2.0],
      "ProtocolName": "mbep2d_bold_mb2_p3_AP 2iso",
      "RepetitionTime": 1000.0,
      "Rows": 728,
      "SAR": 0.0,
      "SamplesPerPixel": 1,
      "ScanOptions": [
        "PFP",
        "FS"
],
      "ScanningSequence": "EP",
      "SequenceName": "epfid2d1_104",
      "SequenceVariant": [
        "SK",
        "SS"
],
      "SeriesDescription": "mbep2d_bold_mb2_p3_AP 2iso",
      "SeriesNumber": 28,
      "SeriesTime": "095640.796000",
      "SliceLocation": -16.015575816667,
      "SliceThickness": 2.0,
      "SmallestImagePixelValue": 0,
      "SoftwareVersions": "syngo MR B17",
      "SpacingBetweenSlices": 2.0000000229338,
      "SpecificCharacterSet": "ISO_IR 100",
      "StudyID": "1",
      "StudyTime": "085044.875000",
      "TransmitCoilName": "CFMM_8Tx32Rx",
      "VariableFlipAngleFlag": "N",
      "WindowCenterWidthExplanation": "Algo1",
      "dBdt": 0.0},
    "slices": {}
  },
  "time": {
    "samples": {
      "AcquisitionNumber": [1, 2, 3, 4, 5, 6, 7, 8, 9, 10, 11, 12, 13, 14, 15, 16, 17, 18, 19, 20, 21, 22, 23, 24, 25, 26, 27, 28, 29, 30, 31, 32, 33, 34, 35, 36, 37, 38, 39, 40, 41, 42, 43, 44, 45, 46, 47, 48, 49, 50, 51, 52, 53, 54, 55, 56, 57, 58, 59, 60, 61, 62, 63, 64, 65, 66, 67, 68, 69, 70, 71, 72, 73, 74, 75, 76, 77, 78, 79, 80, 81, 82, 83, 84, 85, 86, 87, 88, 89, 90, 91, 92, 93, 94, 95, 96, 97, 98, 99, 100, 101, 102, 103, 104, 105, 106, 107, 108, 109, 110, 111, 112, 113, 114, 115, 116, 117, 118, 119, 120, 121, 122, 123, 124, 125, 126, 127, 128, 129, 130, 131, 132, 133, 134, 135, 136, 137, 138, 139, 140, 141, 142, 143, 144, 145, 146, 147, 148, 149, 150, 151, 152, 153, 154, 155, 156, 157, 158, 159, 160, 161, 162, 163, 164, 165, 166, 167, 168, 169, 170, 171, 172, 173, 174, 175, 176, 177, 178, 179, 180, 181, 182, 183, 184, 185, 186, 187, 188, 189, 190, 191, 192, 193, 194, 195, 196, 197, 198, 199, 200, 201, 202, 203, 204, 205, 206, 207, 208, 209, 210, 211, 212, 213, 214, 215, 216, 217, 218, 219, 220, 221, 222, 223, 224, 225, 226, 227, 228, 229, 230, 231, 232, 233, 234, 235, 236, 237, 238, 239, 240, 241, 242, 243, 244, 245, 246, 247, 248, 249, 250, 251, 252, 253, 254, 255, 256, 257, 258, 259, 260, 261, 262, 263, 264, 265, 266, 267, 268, 269, 270, 271, 272, 273, 274, 275, 276, 277, 278, 279, 280, 281, 282, 283, 284, 285, 286, 287, 288, 289, 290, 291, 292, 293, 294, 295, 296, 297, 298, 299, 300, 301, 302, 303, 304, 305, 306, 307, 308, 309, 310, 311, 312, 313, 314, 315, 316, 317, 318, 319, 320, 321, 322, 323, 324, 325, 326, 327, 328, 329, 330],
      "AcquisitionTime": ["095619.987500", "095620.992500", "095621.995000", "095623.000000", "095624.002500", "095625.007500", "095626.012500", "095627.015000", "095628.020000", "095629.025000", "095630.027500", "095631.032500", "095632.035000", "095633.040000", "095634.045000", "095635.047500", "095636.052500", "095637.055000", "095638.060000", "095639.065000", "095640.067500", "095641.072500", "095642.075000", "095643.080000", "095644.085000", "095645.087500", "095646.092500", "095647.095000", "095648.100000", "095649.105000", "095650.107500", "095651.112500", "095652.115000", "095653.120000", "095654.125000", "095655.127500", "095656.132500", "095657.137500", "095658.140000", "095659.145000", "095700.147500", "095701.152500", "095702.157500", "095703.160000", "095704.165000", "095705.167500", "095706.172500", "095707.177500", "095708.180000", "095709.185000", "095710.187500", "095711.192500", "095712.197500", "095713.200000", "095714.205000", "095715.207500", "095716.212500", "095717.217500", "095718.220000", "095719.225000", "095720.227500", "095721.232500", "095722.237500", "095723.240000", "095724.245000", "095725.247500", "095726.252500", "095727.257500", "095728.260000", "095729.265000", "095730.270000", "095731.272500", "095732.277500", "095733.280000", "095734.285000", "095735.290000", "095736.292500", "095737.297500", "095738.300000", "095739.305000", "095740.310000", "095741.312500", "095742.317500", "095743.320000", "095744.325000", "095745.330000", "095746.332500", "095747.337500", "095748.340000", "095749.345000", "095750.350000", "095751.352500", "095752.357500", "095753.360000", "095754.365000", "095755.370000", "095756.372500", "095757.377500", "095758.380000", "095759.385000", "095800.390000", "095801.392500", "095802.397500", "095803.402500", "095804.405000", "095805.410000", "095806.412500", "095807.417500", "095808.422500", "095809.425000", "095810.430000", "095811.432500", "095812.437500", "095813.442500", "095814.445000", "095815.450000", "095816.452500", "095817.457500", "095818.462500", "095819.465000", "095820.470000", "095821.472500", "095822.477500", "095823.482500", "095824.485000", "095825.490000", "095826.492500", "095827.497500", "095828.502500", "095829.505000", "095830.510000", "095831.515000", "095832.517500", "095833.522500", "095834.525000", "095835.530000", "095836.535000", "095837.537500", "095838.542500", "095839.545000", "095840.550000", "095841.555000", "095842.557500", "095843.562500", "095844.565000", "095845.570000", "095846.575000", "095847.577500", "095848.582500", "095849.585000", "095850.590000", "095851.595000", "095852.597500", "095853.602500", "095854.605000", "095855.610000", "095856.615000", "095857.617500", "095858.622500", "095859.625000", "095900.630000", "095901.635000", "095902.637500", "095903.642500", "095904.647500", "095905.650000", "095906.655000", "095907.657500", "095908.662500", "095909.667500", "095910.670000", "095911.675000", "095912.677500", "095913.682500", "095914.687500", "095915.690000", "095916.695000", "095917.697500", "095918.702500", "095919.707500", "095920.710000", "095921.715000", "095922.717500", "095923.722500", "095924.727500", "095925.730000", "095926.735000", "095927.737500", "095928.742500", "095929.747500", "095930.750000", "095931.755000", "095932.760000", "095933.762500", "095934.767500", "095935.770000", "095936.775000", "095937.780000", "095938.782500", "095939.787500", "095940.790000", "095941.795000", "095942.800000", "095943.802500", "095944.807500", "095945.810000", "095946.815000", "095947.820000", "095948.822500", "095949.827500", "095950.830000", "095951.835000", "095952.840000", "095953.842500", "095954.847500", "095955.850000", "095956.855000", "095957.860000", "095958.862500", "095959.867500", "100000.870000", "100001.875000", "100002.880000", "100003.882500", "100004.887500", "100005.892500", "100006.895000", "100007.900000", "100008.902500", "100009.907500", "100010.912500", "100011.915000", "100012.920000", "100013.922500", "100014.927500", "100015.932500", "100016.935000", "100017.940000", "100018.942500", "100019.947500", "100020.952500", "100021.955000", "100022.960000", "100023.962500", "100024.967500", "100025.972500", "100026.975000", "100027.980000", "100028.982500", "100029.987500", "100030.992500", "100031.995000", "100033.000000", "100034.002500", "100035.007500", "100036.012500", "100037.015000", "100038.020000", "100039.025000", "100040.027500", "100041.032500", "100042.035000", "100043.040000", "100044.045000", "100045.047500", "100046.052500", "100047.055000", "100048.060000", "100049.065000", "100050.067500", "100051.072500", "100052.075000", "100053.080000", "100054.085000", "100055.087500", "100056.092500", "100057.095000", "100058.100000", "100059.105000", "100100.107500", "100101.112500", "100102.115000", "100103.120000", "100104.125000", "100105.127500", "100106.132500", "100107.137500", "100108.140000", "100109.145000", "100110.147500", "100111.152500", "100112.157500", "100113.160000", "100114.165000", "100115.167500", "100116.172500", "100117.177500", "100118.180000", "100119.185000", "100120.187500", "100121.192500", "100122.197500", "100123.200000", "100124.205000", "100125.207500", "100126.212500", "100127.217500", "100128.220000", "100129.225000", "100130.227500", "100131.232500", "100132.237500", "100133.240000", "100134.245000", "100135.247500", "100136.252500", "100137.257500", "100138.260000", "100139.265000", "100140.270000", "100141.272500", "100142.277500", "100143.280000", "100144.285000", "100145.290000", "100146.292500", "100147.297500", "100148.300000", "100149.305000", "100150.310000"],
      "ContentTime": ["095640.796000", "095640.796000", "095640.796000", "095640.796000", "095640.812000", "095640.812000", "095640.812000", "095640.812000", "095640.828000", "095640.828000", "095640.828000", "095640.828000", "095640.828000", "095640.828000", "095640.828000", "095640.828000", "095640.843000", "095640.843000", "095640.843000", "095640.843000", "095700.765000", "095700.765000", "095700.765000", "095700.765000", "095700.765000", "095700.765000", "095700.781000", "095700.781000", "095700.781000", "095700.781000", "095700.796000", "095700.796000", "095700.796000", "095700.796000", "095700.796000", "095700.796000", "095700.796000", "095700.812000", "095700.812000", "095700.812000", "095720.765000", "095720.765000", "095720.765000", "095720.765000", "095720.765000", "095720.765000", "095720.781000", "095720.781000", "095720.781000", "095720.781000", "095720.781000", "095720.781000", "095720.781000", "095720.781000", "095720.796000", "095720.796000", "095720.796000", "095720.796000", "095720.796000", "095720.796000", "095740.765000", "095740.765000", "095740.781000", "095740.781000", "095740.781000", "095740.781000", "095740.781000", "095740.781000", "095740.781000", "095740.796000", "095740.796000", "095740.796000", "095740.796000", "095740.796000", "095740.796000", "095740.796000", "095740.812000", "095740.812000", "095740.812000", "095740.812000", "095800.765000", "095800.765000", "095800.765000", "095800.765000", "095800.765000", "095800.765000", "095800.781000", "095800.781000", "095800.781000", "095800.781000", "095800.781000", "095800.781000", "095800.781000", "095800.781000", "095800.796000", "095800.796000", "095800.796000", "095800.796000", "095800.796000", "095800.796000", "095820.765000", "095820.765000", "095820.765000", "095820.765000", "095820.765000", "095820.765000", "095820.781000", "095820.781000", "095820.781000", "095820.781000", "095820.781000", "095820.781000", "095820.781000", "095820.796000", "095820.796000", "095820.796000", "095820.796000", "095820.796000", "095820.796000", "095820.796000", "095840.765000", "095840.765000", "095840.781000", "095840.781000", "095840.781000", "095840.781000", "095840.781000", "095840.781000", "095840.781000", "095840.796000", "095840.796000", "095840.796000", "095840.796000", "095840.796000", "095840.796000", "095840.796000", "095840.812000", "095840.812000", "095840.812000", "095840.812000", "095900.765000", "095900.765000", "095900.765000", "095900.765000", "095900.765000", "095900.765000", "095900.781000", "095900.781000", "095900.781000", "095900.781000", "095900.781000", "095900.781000", "095900.781000", "095900.781000", "095900.796000", "095900.796000", "095900.796000", "095900.796000", "095900.796000", "095900.812000", "095920.765000", "095920.765000", "095920.765000", "095920.781000", "095920.781000", "095920.781000", "095920.781000", "095920.781000", "095920.781000", "095920.796000", "095920.796000", "095920.796000", "095920.796000", "095920.796000", "095920.812000", "095920.812000", "095920.812000", "095920.812000", "095920.812000", "095920.812000", "095940.765000", "095940.765000", "095940.765000", "095940.765000", "095940.765000", "095940.781000", "095940.781000", "095940.781000", "095940.781000", "095940.781000", "095940.781000", "095940.781000", "095940.796000", "095940.796000", "095940.796000", "095940.796000", "095940.796000", "095940.796000", "095940.812000", "095940.812000", "100000.765000", "100000.765000", "100000.765000", "100000.765000", "100000.765000", "100000.765000", "100000.781000", "100000.781000", "100000.781000", "100000.781000", "100000.781000", "100000.781000", "100000.781000", "100000.796000", "100000.796000", "100000.796000", "100000.796000", "100000.796000", "100000.796000", "100000.796000", "100020.765000", "100020.765000", "100020.765000", "100020.765000", "100020.765000", "100020.765000", "100020.781000", "100020.781000", "100020.781000", "100020.781000", "100020.781000", "100020.781000", "100020.781000", "100020.796000", "100020.796000", "100020.796000", "100020.796000", "100020.796000", "100020.796000", "100020.796000", "100040.765000", "100040.765000", "100040.765000", "100040.765000", "100040.765000", "100040.765000", "100040.781000", "100040.781000", "100040.781000", "100040.781000", "100040.781000", "100040.781000", "100040.781000", "100040.796000", "100040.796000", "100040.796000", "100040.796000", "100040.796000", "100040.796000", "100040.796000", "100100.765000", "100100.765000", "100100.765000", "100100.765000", "100100.765000", "100100.765000", "100100.781000", "100100.781000", "100100.781000", "100100.781000", "100100.781000", "100100.781000", "100100.781000", "100100.796000", "100100.796000", "100100.796000", "100100.796000", "100100.796000", "100100.796000", "100100.796000", "100120.765000", "100120.765000", "100120.765000", "100120.765000", "100120.765000", "100120.765000", "100120.781000", "100120.781000", "100120.781000", "100120.781000", "100120.781000", "100120.781000", "100120.781000", "100120.796000", "100120.796000", "100120.796000", "100120.796000", "100120.796000", "100120.796000", "100120.812000", "100140.765000", "100140.765000", "100140.765000", "100140.765000", "100140.765000", "100140.765000", "100140.781000", "100140.781000", "100140.781000", "100140.781000", "100140.781000", "100140.781000", "100140.781000", "100140.781000", "100140.796000", "100140.796000", "100140.796000", "100140.796000", "100140.796000", "100140.796000", "100155.328000", "100155.328000", "100155.343000", "100155.343000", "100155.343000", "100155.343000", "100155.343000", "100155.343000", "100155.343000", "100155.343000"],
      "InstanceCreationTime": ["095640.796000", "095640.796000", "095640.796000", "095640.796000", "095640.812000", "095640.812000", "095640.812000", "095640.812000", "095640.828000", "095640.828000", "095640.828000", "095640.828000", "095640.828000", "095640.828000", "095640.828000", "095640.828000", "095640.843000", "095640.843000", "095640.843000", "095640.843000", "095700.765000", "095700.765000", "095700.765000", "095700.765000", "095700.765000", "095700.765000", "095700.781000", "095700.781000", "095700.781000", "095700.781000", "095700.796000", "095700.796000", "095700.796000", "095700.796000", "095700.796000", "095700.796000", "095700.796000", "095700.812000", "095700.812000", "095700.812000", "095720.765000", "095720.765000", "095720.765000", "095720.765000", "095720.765000", "095720.765000", "095720.781000", "095720.781000", "095720.781000", "095720.781000", "095720.781000", "095720.781000", "095720.781000", "095720.781000", "095720.796000", "095720.796000", "095720.796000", "095720.796000", "095720.796000", "095720.796000", "095740.765000", "095740.765000", "095740.781000", "095740.781000", "095740.781000", "095740.781000", "095740.781000", "095740.781000", "095740.781000", "095740.796000", "095740.796000", "095740.796000", "095740.796000", "095740.796000", "095740.796000", "095740.796000", "095740.812000", "095740.812000", "095740.812000", "095740.812000", "095800.765000", "095800.765000", "095800.765000", "095800.765000", "095800.765000", "095800.765000", "095800.781000", "095800.781000", "095800.781000", "095800.781000", "095800.781000", "095800.781000", "095800.781000", "095800.781000", "095800.796000", "095800.796000", "095800.796000", "095800.796000", "095800.796000", "095800.796000", "095820.765000", "095820.765000", "095820.765000", "095820.765000", "095820.765000", "095820.765000", "095820.781000", "095820.781000", "095820.781000", "095820.781000", "095820.781000", "095820.781000", "095820.781000", "095820.796000", "095820.796000", "095820.796000", "095820.796000", "095820.796000", "095820.796000", "095820.796000", "095840.765000", "095840.765000", "095840.781000", "095840.781000", "095840.781000", "095840.781000", "095840.781000", "095840.781000", "095840.781000", "095840.796000", "095840.796000", "095840.796000", "095840.796000", "095840.796000", "095840.796000", "095840.796000", "095840.812000", "095840.812000", "095840.812000", "095840.812000", "095900.765000", "095900.765000", "095900.765000", "095900.765000", "095900.765000", "095900.765000", "095900.781000", "095900.781000", "095900.781000", "095900.781000", "095900.781000", "095900.781000", "095900.781000", "095900.781000", "095900.796000", "095900.796000", "095900.796000", "095900.796000", "095900.796000", "095900.812000", "095920.765000", "095920.765000", "095920.765000", "095920.781000", "095920.781000", "095920.781000", "095920.781000", "095920.781000", "095920.781000", "095920.796000", "095920.796000", "095920.796000", "095920.796000", "095920.796000", "095920.812000", "095920.812000", "095920.812000", "095920.812000", "095920.812000", "095920.812000", "095940.765000", "095940.765000", "095940.765000", "095940.765000", "095940.765000", "095940.781000", "095940.781000", "095940.781000", "095940.781000", "095940.781000", "095940.781000", "095940.781000", "095940.796000", "095940.796000", "095940.796000", "095940.796000", "095940.796000", "095940.796000", "095940.812000", "095940.812000", "100000.765000", "100000.765000", "100000.765000", "100000.765000", "100000.765000", "100000.765000", "100000.781000", "100000.781000", "100000.781000", "100000.781000", "100000.781000", "100000.781000", "100000.781000", "100000.796000", "100000.796000", "100000.796000", "100000.796000", "100000.796000", "100000.796000", "100000.796000", "100020.765000", "100020.765000", "100020.765000", "100020.765000", "100020.765000", "100020.765000", "100020.781000", "100020.781000", "100020.781000", "100020.781000", "100020.781000", "100020.781000", "100020.781000", "100020.796000", "100020.796000", "100020.796000", "100020.796000", "100020.796000", "100020.796000", "100020.796000", "100040.765000", "100040.765000", "100040.765000", "100040.765000", "100040.765000", "100040.765000", "100040.781000", "100040.781000", "100040.781000", "100040.781000", "100040.781000", "100040.781000", "100040.781000", "100040.796000", "100040.796000", "100040.796000", "100040.796000", "100040.796000", "100040.796000", "100040.796000", "100100.765000", "100100.765000", "100100.765000", "100100.765000", "100100.765000", "100100.765000", "100100.781000", "100100.781000", "100100.781000", "100100.781000", "100100.781000", "100100.781000", "100100.781000", "100100.796000", "100100.796000", "100100.796000", "100100.796000", "100100.796000", "100100.796000", "100100.796000", "100120.765000", "100120.765000", "100120.765000", "100120.765000", "100120.765000", "100120.765000", "100120.781000", "100120.781000", "100120.781000", "100120.781000", "100120.781000", "100120.781000", "100120.781000", "100120.796000", "100120.796000", "100120.796000", "100120.796000", "100120.796000", "100120.796000", "100120.812000", "100140.765000", "100140.765000", "100140.765000", "100140.765000", "100140.765000", "100140.765000", "100140.781000", "100140.781000", "100140.781000", "100140.781000", "100140.781000", "100140.781000", "100140.781000", "100140.781000", "100140.796000", "100140.796000", "100140.796000", "100140.796000", "100140.796000", "100140.796000", "100155.328000", "100155.328000", "100155.343000", "100155.343000", "100155.343000", "100155.343000", "100155.343000", "100155.343000", "100155.343000", "100155.343000"],
      "InstanceNumber": [1, 2, 3, 4, 5, 6, 7, 8, 9, 10, 11, 12, 13, 14, 15, 16, 17, 18, 19, 20, 21, 22, 23, 24, 25, 26, 27, 28, 29, 30, 31, 32, 33, 34, 35, 36, 37, 38, 39, 40, 41, 42, 43, 44, 45, 46, 47, 48, 49, 50, 51, 52, 53, 54, 55, 56, 57, 58, 59, 60, 61, 62, 63, 64, 65, 66, 67, 68, 69, 70, 71, 72, 73, 74, 75, 76, 77, 78, 79, 80, 81, 82, 83, 84, 85, 86, 87, 88, 89, 90, 91, 92, 93, 94, 95, 96, 97, 98, 99, 100, 101, 102, 103, 104, 105, 106, 107, 108, 109, 110, 111, 112, 113, 114, 115, 116, 117, 118, 119, 120, 121, 122, 123, 124, 125, 126, 127, 128, 129, 130, 131, 132, 133, 134, 135, 136, 137, 138, 139, 140, 141, 142, 143, 144, 145, 146, 147, 148, 149, 150, 151, 152, 153, 154, 155, 156, 157, 158, 159, 160, 161, 162, 163, 164, 165, 166, 167, 168, 169, 170, 171, 172, 173, 174, 175, 176, 177, 178, 179, 180, 181, 182, 183, 184, 185, 186, 187, 188, 189, 190, 191, 192, 193, 194, 195, 196, 197, 198, 199, 200, 201, 202, 203, 204, 205, 206, 207, 208, 209, 210, 211, 212, 213, 214, 215, 216, 217, 218, 219, 220, 221, 222, 223, 224, 225, 226, 227, 228, 229, 230, 231, 232, 233, 234, 235, 236, 237, 238, 239, 240, 241, 242, 243, 244, 245, 246, 247, 248, 249, 250, 251, 252, 253, 254, 255, 256, 257, 258, 259, 260, 261, 262, 263, 264, 265, 266, 267, 268, 269, 270, 271, 272, 273, 274, 275, 276, 277, 278, 279, 280, 281, 282, 283, 284, 285, 286, 287, 288, 289, 290, 291, 292, 293, 294, 295, 296, 297, 298, 299, 300, 301, 302, 303, 304, 305, 306, 307, 308, 309, 310, 311, 312, 313, 314, 315, 316, 317, 318, 319, 320, 321, 322, 323, 324, 325, 326, 327, 328, 329, 330],
      "LargestImagePixelValue": [3066, 2994, 3019, 2919, 2980, 2954, 3023, 2965, 3009, 2936, 2869, 2958, 2961, 2952, 2948, 2911, 2843, 2914, 2960, 2972, 2871, 3023, 2975, 2900, 2938, 2905, 2920, 2880, 2958, 2923, 2832, 2951, 2948, 2905, 2983, 2978, 2972, 2999, 2973, 2921, 2959, 2936, 2915, 2924, 2981, 3033, 2913, 2927, 2985, 2903, 2920, 2966, 2934, 2918, 2927, 2957, 2927, 2914, 2953, 2857, 2657, 2645, 2716, 2699, 2856, 2851, 2791, 2820, 2891, 2833, 2800, 2846, 2908, 2886, 2897, 2897, 2933, 2856, 2881, 2832, 2854, 2898, 2879, 2903, 2887, 2842, 2928, 2965, 2911, 2904, 2844, 2930, 2898, 2898, 2932, 2863, 2881, 2900, 2923, 2886, 2815, 2940, 2925, 2912, 2890, 2915, 2899, 2921, 2956, 2693, 2741, 2759, 3028, 2934, 2914, 2971, 3003, 2970, 2940, 2919, 2908, 2955, 2936, 2864, 2925, 2933, 2893, 2972, 2887, 2878, 2830, 2903, 2943, 2881, 2884, 2870, 2841, 2960, 2879, 2874, 2901, 2928, 2920, 2962, 2878, 2937, 2832, 2962, 2913, 2848, 2963, 2959, 2899, 2883, 2914, 2851, 2871, 2848, 2913, 2878, 2969, 2920, 2872, 2907, 2945, 2946, 2882, 2896, 2926, 2919, 2921, 2965, 2936, 2867, 2940, 2742, 2711, 2926, 2941, 2924, 2957, 2942, 2866, 2948, 2936, 2946, 2946, 2948, 2884, 2910, 2894, 2923, 2948, 2902, 2982, 2958, 2988, 2958, 2934, 2997, 2922, 2959, 2991, 2929, 2971, 2967, 3000, 2937, 2927, 2892, 2917, 2905, 2896, 2905, 2940, 2971, 2955, 2962, 2931, 2885, 2961, 2992, 2841, 2964, 2943, 2886, 3021, 2981, 2930, 2958, 2907, 2918, 2840, 2878, 2953, 2903, 2909, 3027, 3021, 2839, 2956, 2921, 2829, 2939, 2927, 2900, 2963, 2899, 2875, 2837, 2990, 2970, 2910, 2968, 3004, 2850, 3009, 3001, 2905, 2870, 2949, 2985, 2876, 2958, 2831, 2759, 3004, 2969, 3012, 2938, 2957, 2897, 2915, 2949, 2929, 2912, 3027, 2968, 2901, 2991, 2970, 2972, 2891, 2974, 2939, 2831, 2960, 2911, 2849, 2990, 3013, 2936, 2942, 2975, 2947, 2915, 2942, 2888, 2887, 3021, 2945, 2944, 2906, 2996, 2933, 2903, 2934, 2972, 2949, 2885, 2979, 3006, 2957, 2980, 2927, 2835, 2947, 2960, 2861, 2965, 3032, 3000, 2941, 2983, 2949, 2954, 2999, 2955, 2948, 2992],
      "WindowCenter": [461.0, 459.0, 458.0, 456.0, 457.0, 456.0, 456.0, 457.0, 457.0, 457.0, 457.0, 457.0, 458.0, 458.0, 457.0, 457.0, 457.0, 457.0, 457.0, 457.0, 457.0, 457.0, 456.0, 456.0, 456.0, 456.0, 457.0, 458.0, 459.0, 459.0, 456.0, 454.0, 453.0, 454.0, 456.0, 458.0, 459.0, 459.0, 458.0, 457.0, 456.0, 454.0, 455.0, 456.0, 459.0, 460.0, 460.0, 458.0, 458.0, 456.0, 456.0, 456.0, 457.0, 460.0, 462.0, 461.0, 460.0, 457.0, 455.0, 455.0, 454.0, 454.0, 456.0, 457.0, 456.0, 454.0, 452.0, 452.0, 452.0, 452.0, 453.0, 453.0, 455.0, 456.0, 457.0, 457.0, 458.0, 457.0, 457.0, 456.0, 456.0, 456.0, 458.0, 459.0, 459.0, 459.0, 458.0, 457.0, 456.0, 456.0, 456.0, 456.0, 457.0, 458.0, 459.0, 458.0, 459.0, 458.0, 457.0, 456.0, 456.0, 458.0, 459.0, 460.0, 459.0, 458.0, 458.0, 457.0, 457.0, 455.0, 456.0, 456.0, 461.0, 461.0, 459.0, 457.0, 456.0, 456.0, 456.0, 456.0, 456.0, 456.0, 454.0, 453.0, 453.0, 454.0, 455.0, 456.0, 456.0, 456.0, 456.0, 456.0, 456.0, 456.0, 456.0, 456.0, 456.0, 457.0, 457.0, 457.0, 459.0, 459.0, 459.0, 459.0, 457.0, 456.0, 455.0, 455.0, 457.0, 458.0, 459.0, 460.0, 459.0, 458.0, 457.0, 456.0, 456.0, 456.0, 457.0, 458.0, 458.0, 458.0, 457.0, 457.0, 458.0, 458.0, 458.0, 459.0, 459.0, 459.0, 457.0, 456.0, 456.0, 455.0, 456.0, 456.0, 458.0, 460.0, 461.0, 459.0, 457.0, 456.0, 456.0, 457.0, 458.0, 459.0, 459.0, 458.0, 457.0, 457.0, 456.0, 456.0, 457.0, 458.0, 460.0, 460.0, 460.0, 459.0, 457.0, 456.0, 456.0, 456.0, 458.0, 459.0, 461.0, 460.0, 459.0, 458.0, 457.0, 456.0, 456.0, 456.0, 457.0, 458.0, 459.0, 459.0, 458.0, 457.0, 456.0, 456.0, 457.0, 458.0, 458.0, 459.0, 459.0, 459.0, 460.0, 460.0, 459.0, 458.0, 457.0, 458.0, 459.0, 460.0, 461.0, 460.0, 459.0, 458.0, 457.0, 455.0, 456.0, 456.0, 457.0, 458.0, 459.0, 459.0, 459.0, 458.0, 457.0, 456.0, 457.0, 457.0, 456.0, 456.0, 456.0, 455.0, 456.0, 456.0, 456.0, 456.0, 456.0, 457.0, 456.0, 457.0, 457.0, 457.0, 459.0, 459.0, 460.0, 459.0, 458.0, 457.0, 457.0, 457.0, 457.0, 458.0, 460.0, 460.0, 459.0, 458.0, 456.0, 456.0, 455.0, 456.0, 457.0, 457.0, 459.0, 458.0, 458.0, 459.0, 459.0, 459.0, 459.0, 458.0, 457.0, 456.0, 456.0, 457.0, 457.0, 460.0, 460.0, 460.0, 458.0, 457.0, 456.0, 456.0, 457.0, 459.0, 460.0, 459.0, 458.0, 458.0, 457.0, 456.0, 456.0, 455.0, 457.0, 458.0, 459.0, 460.0, 462.0, 462.0, 460.0, 458.0, 457.0, 456.0, 456.0, 456.0, 457.0, 458.0],
