{
  "AcquisitionMatrixPE": 104,
  "AcquisitionNumber": 1,
  "AcquisitionTime": "10:15:43.252500",
  "BandwidthPerPixelPhaseEncode": 43.054,
  "BaseResolution": 104,
  "CoilString": "C:E1_2",
  "ConversionSoftware": "dcm2niix",
  "ConversionSoftwareVersion": "v1.0.20191031",
  "DerivedVendorReportedEchoSpacing": 0.000669999,
  "DeviceSerialNumber": "18932",
  "DwellTime": 2.8e-06,
  "EchoTime": 0.02,
  "EffectiveEchoSpacing": 0.000223333,
  "FlipAngle": 30,
  "ImageComments": "Unaliased_MB2_PE2",
  "ImageOrientationPatientDICOM": [1, 0, 0, 0, 0.943223, -0.332161],
  "ImageType": [
    "ORIGINAL",
    "PRIMARY",
    "M",
    "MB",
    "ND",
    "MOSAIC"
],
  "ImagingFrequency": 297.229,
  "InPlanePhaseEncodingDirectionDICOM": "COL",
  "InstitutionAddress": "Richmond_Street_North_1151_London_409EF2_Ontario_CA_N6A_5B7",
  "InstitutionName": "Robarts_Reserch_Institute",
  "InstitutionalDepartmentName": "Department",
  "MRAcquisitionType": "2D",
  "MagneticFieldStrength": 6.98,
  "Manufacturer": "Siemens",
  "ManufacturersModelName": "Investigational_Device_7T",
  "Modality": "MR",
  "MultibandAccelerationFactor": 2,
  "ParallelReductionFactorInPlane": 3,
  "PartialFourier": 0.875,
  "PatientPosition": "HFS",
  "PercentPhaseFOV": 100,
  "PhaseEncodingDirection": "j-",
  "PhaseEncodingSteps": 91,
  "PhaseResolution": 1,
  "PixelBandwidth": 1717,
  "ProcedureStepDescription": "Diedrichsen_SeqRep4",
  "ProtocolName": "mbep2d_bold_mb2_p3_AP_2iso",
  "PulseSequenceDetails": "%CustomerSeq%_cmrr_mbep2d_bold",
  "ReceiveCoilName": "CFMM_8Tx32Rx",
  "ReconMatrixPE": 104,
  "RefLinesPE": 36,
  "RepetitionTime": 1,
  "ScanOptions": "PFP_FS",
  "ScanningSequence": "EP",
  "SequenceName": "epfid2d1_104",
  "SequenceVariant": "SK_SS",
  "SeriesDescription": "mbep2d_bold_mb2_p3_AP_2iso",
  "SeriesNumber": 34,
  "ShimSetting": [-5, 2173, 67, 1641, -25, 214, 198, -161],
  "SliceThickness": 2,
  "SliceTiming": [0, 0.23, 0.4575, 0.685, 0.9125, 0.1375, 0.365, 0.595, 0.8225, 0.0475, 0.275, 0.5025, 0.73, 0.96, 0.1825, 0.4125, 0.64, 0.8675, 0.0925, 0.32, 0.5475, 0.7775, 0, 0.23, 0.4575, 0.685, 0.9125, 0.1375, 0.365, 0.595, 0.8225, 0.0475, 0.275, 0.5025, 0.73, 0.96, 0.1825, 0.4125, 0.64, 0.8675, 0.0925, 0.32, 0.5475, 0.7775],
  "SoftwareVersions": "syngo_MR_B17",
  "SpacingBetweenSlices": 2,
  "StationName": "MASTER",
  "TaskName": "dsp",
  "TotalReadoutTime": 0.0230033,
  "TxRefAmp": 120,
  "dcmmeta_affine": [
    [-2.0, 0.0, 0.0, 108.35835266113281],
    [0.0, 1.8864452838897705, -0.6643223166465759, -99.36136627197266],
    [0.0, 0.6643223166465759, 1.8864452838897705, -51.97029495239258],
    [0.0, 0.0, 0.0, 1.0]
],
  "dcmmeta_reorient_transform": [
    [0.0, -1.0, 0.0, 103.0],
    [1.0, 0.0, 0.0, 0.0],
    [0.0, 0.0, 1.0, 0.0],
    [0.0, 0.0, 0.0, 1.0]
],
  "dcmmeta_shape": [104, 104, 44, 330],
  "dcmmeta_slice_dim": 2,
  "dcmmeta_version": 0.6,
  "global": {
    "const": {
      "AcquisitionMatrix": [104, 0, 0, 104],
      "AngioFlag": "N",
      "BitsAllocated": 16,
      "BitsStored": 12,
      "Columns": 728,
      "EchoNumbers": 1,
      "EchoTime": 20.0,
      "EchoTrainLength": 1,
      "FlipAngle": 30.0,
      "HighBit": 11,
      "ImageOrientationPatient": [1.0, 0.0, 0.0, 0.0, 0.94322265279987, -0.3321611465015],
      "ImagePositionPatient": [-732.35835361481, -683.51343778257, 223.72345564428],
      "ImageType": [
        "ORIGINAL",
        "PRIMARY",
        "M",
        "MB",
        "ND",
        "MOSAIC"
],
      "ImagedNucleus": "1H",
      "ImagingFrequency": 297.228806,
      "InPlanePhaseEncodingDirection": "COL",
      "MRAcquisitionType": "2D",
      "MagneticFieldStrength": 6.98,
      "Manufacturer": "SIEMENS",
      "ManufacturerModelName": "Investigational_Device_7T",
      "Modality": "MR",
      "NumberOfAverages": 1.0,
      "NumberOfPhaseEncodingSteps": 91,
      "PercentPhaseFieldOfView": 100.0,
      "PercentSampling": 100.0,
      "PerformedProcedureStepStartTime": "085045.000000",
      "PhotometricInterpretation": "MONOCHROME2",
      "PixelBandwidth": 1717.0,
      "PixelRepresentation": 0,
      "PixelSpacing": [2.0, 2.0],
      "ProtocolName": "mbep2d_bold_mb2_p3_AP 2iso",
      "RepetitionTime": 1000.0,
      "Rows": 728,
      "SAR": 0.0,
      "SamplesPerPixel": 1,
      "ScanOptions": [
        "PFP",
        "FS"
],
      "ScanningSequence": "EP",
      "SequenceName": "epfid2d1_104",
      "SequenceVariant": [
        "SK",
        "SS"
],
      "SeriesDescription": "mbep2d_bold_mb2_p3_AP 2iso",
      "SeriesNumber": 34,
      "SeriesTime": "101620.796000",
      "SliceLocation": -16.015575816667,
      "SliceThickness": 2.0,
      "SmallestImagePixelValue": 0,
      "SoftwareVersions": "syngo MR B17",
      "SpacingBetweenSlices": 2.0000000229338,
      "SpecificCharacterSet": "ISO_IR 100",
      "StudyID": "1",
      "StudyTime": "085044.875000",
      "TransmitCoilName": "CFMM_8Tx32Rx",
      "VariableFlipAngleFlag": "N",
      "WindowCenterWidthExplanation": "Algo1",
      "dBdt": 0.0},
    "slices": {}
  },
  "time": {
    "samples": {
      "AcquisitionNumber": [1, 2, 3, 4, 5, 6, 7, 8, 9, 10, 11, 12, 13, 14, 15, 16, 17, 18, 19, 20, 21, 22, 23, 24, 25, 26, 27, 28, 29, 30, 31, 32, 33, 34, 35, 36, 37, 38, 39, 40, 41, 42, 43, 44, 45, 46, 47, 48, 49, 50, 51, 52, 53, 54, 55, 56, 57, 58, 59, 60, 61, 62, 63, 64, 65, 66, 67, 68, 69, 70, 71, 72, 73, 74, 75, 76, 77, 78, 79, 80, 81, 82, 83, 84, 85, 86, 87, 88, 89, 90, 91, 92, 93, 94, 95, 96, 97, 98, 99, 100, 101, 102, 103, 104, 105, 106, 107, 108, 109, 110, 111, 112, 113, 114, 115, 116, 117, 118, 119, 120, 121, 122, 123, 124, 125, 126, 127, 128, 129, 130, 131, 132, 133, 134, 135, 136, 137, 138, 139, 140, 141, 142, 143, 144, 145, 146, 147, 148, 149, 150, 151, 152, 153, 154, 155, 156, 157, 158, 159, 160, 161, 162, 163, 164, 165, 166, 167, 168, 169, 170, 171, 172, 173, 174, 175, 176, 177, 178, 179, 180, 181, 182, 183, 184, 185, 186, 187, 188, 189, 190, 191, 192, 193, 194, 195, 196, 197, 198, 199, 200, 201, 202, 203, 204, 205, 206, 207, 208, 209, 210, 211, 212, 213, 214, 215, 216, 217, 218, 219, 220, 221, 222, 223, 224, 225, 226, 227, 228, 229, 230, 231, 232, 233, 234, 235, 236, 237, 238, 239, 240, 241, 242, 243, 244, 245, 246, 247, 248, 249, 250, 251, 252, 253, 254, 255, 256, 257, 258, 259, 260, 261, 262, 263, 264, 265, 266, 267, 268, 269, 270, 271, 272, 273, 274, 275, 276, 277, 278, 279, 280, 281, 282, 283, 284, 285, 286, 287, 288, 289, 290, 291, 292, 293, 294, 295, 296, 297, 298, 299, 300, 301, 302, 303, 304, 305, 306, 307, 308, 309, 310, 311, 312, 313, 314, 315, 316, 317, 318, 319, 320, 321, 322, 323, 324, 325, 326, 327, 328, 329, 330],
      "AcquisitionTime": ["101543.252500", "101544.257500", "101545.262500", "101546.265000", "101547.270000", "101548.275000", "101549.277500", "101550.282500", "101551.285000", "101552.290000", "101553.295000", "101554.297500", "101555.302500", "101556.305000", "101557.310000", "101558.315000", "101559.317500", "101600.322500", "101601.325000", "101602.330000", "101603.335000", "101604.337500", "101605.342500", "101606.345000", "101607.350000", "101608.355000", "101609.357500", "101610.362500", "101611.365000", "101612.370000", "101613.375000", "101614.377500", "101615.382500", "101616.387500", "101617.390000", "101618.395000", "101619.397500", "101620.402500", "101621.407500", "101622.410000", "101623.415000", "101624.417500", "101625.422500", "101626.427500", "101627.430000", "101628.435000", "101629.437500", "101630.442500", "101631.447500", "101632.450000", "101633.455000", "101634.457500", "101635.462500", "101636.467500", "101637.470000", "101638.475000", "101639.477500", "101640.482500", "101641.487500", "101642.490000", "101643.495000", "101644.497500", "101645.502500", "101646.507500", "101647.510000", "101648.515000", "101649.520000", "101650.522500", "101651.527500", "101652.530000", "101653.535000", "101654.540000", "101655.542500", "101656.547500", "101657.550000", "101658.555000", "101659.560000", "101700.562500", "101701.567500", "101702.570000", "101703.575000", "101704.580000", "101705.582500", "101706.587500", "101707.590000", "101708.595000", "101709.600000", "101710.602500", "101711.607500", "101712.610000", "101713.615000", "101714.620000", "101715.622500", "101716.627500", "101717.630000", "101718.635000", "101719.640000", "101720.642500", "101721.647500", "101722.652500", "101723.655000", "101724.660000", "101725.662500", "101726.667500", "101727.672500", "101728.675000", "101729.680000", "101730.682500", "101731.687500", "101732.692500", "101733.695000", "101734.700000", "101735.702500", "101736.707500", "101737.712500", "101738.715000", "101739.720000", "101740.722500", "101741.727500", "101742.732500", "101743.735000", "101744.740000", "101745.742500", "101746.747500", "101747.752500", "101748.755000", "101749.760000", "101750.765000", "101751.767500", "101752.772500", "101753.775000", "101754.780000", "101755.785000", "101756.787500", "101757.792500", "101758.795000", "101759.800000", "101800.805000", "101801.807500", "101802.812500", "101803.815000", "101804.820000", "101805.825000", "101806.827500", "101807.832500", "101808.835000", "101809.840000", "101810.845000", "101811.847500", "101812.852500", "101813.855000", "101814.860000", "101815.865000", "101816.867500", "101817.872500", "101818.875000", "101819.880000", "101820.885000", "101821.887500", "101822.892500", "101823.897500", "101824.900000", "101825.905000", "101826.907500", "101827.912500", "101828.917500", "101829.920000", "101830.925000", "101831.927500", "101832.932500", "101833.937500", "101834.940000", "101835.945000", "101836.947500", "101837.952500", "101838.957500", "101839.960000", "101840.965000", "101841.967500", "101842.972500", "101843.977500", "101844.980000", "101845.985000", "101846.987500", "101847.992500", "101848.997500", "101850.000000", "101851.005000", "101852.010000", "101853.012500", "101854.017500", "101855.020000", "101856.025000", "101857.030000", "101858.032500", "101859.037500", "101900.040000", "101901.045000", "101902.050000", "101903.052500", "101904.057500", "101905.060000", "101906.065000", "101907.070000", "101908.072500", "101909.077500", "101910.080000", "101911.085000", "101912.090000", "101913.092500", "101914.097500", "101915.100000", "101916.105000", "101917.110000", "101918.112500", "101919.117500", "101920.120000", "101921.125000", "101922.130000", "101923.132500", "101924.137500", "101925.142500", "101926.145000", "101927.150000", "101928.152500", "101929.157500", "101930.162500", "101931.165000", "101932.170000", "101933.172500", "101934.177500", "101935.182500", "101936.185000", "101937.190000", "101938.192500", "101939.197500", "101940.202500", "101941.205000", "101942.210000", "101943.212500", "101944.217500", "101945.222500", "101946.225000", "101947.230000", "101948.232500", "101949.237500", "101950.242500", "101951.245000", "101952.250000", "101953.252500", "101954.257500", "101955.262500", "101956.265000", "101957.270000", "101958.275000", "101959.277500", "102000.282500", "102001.285000", "102002.290000", "102003.295000", "102004.297500", "102005.302500", "102006.305000", "102007.310000", "102008.315000", "102009.317500", "102010.322500", "102011.325000", "102012.330000", "102013.335000", "102014.337500", "102015.342500", "102016.345000", "102017.350000", "102018.355000", "102019.357500", "102020.362500", "102021.365000", "102022.370000", "102023.375000", "102024.377500", "102025.382500", "102026.387500", "102027.390000", "102028.395000", "102029.397500", "102030.402500", "102031.407500", "102032.410000", "102033.415000", "102034.417500", "102035.422500", "102036.427500", "102037.430000", "102038.435000", "102039.437500", "102040.442500", "102041.447500", "102042.450000", "102043.455000", "102044.457500", "102045.462500", "102046.467500", "102047.470000", "102048.475000", "102049.477500", "102050.482500", "102051.487500", "102052.490000", "102053.495000", "102054.497500", "102055.502500", "102056.507500", "102057.510000", "102058.515000", "102059.520000", "102100.522500", "102101.527500", "102102.530000", "102103.535000", "102104.540000", "102105.542500", "102106.547500", "102107.550000", "102108.555000", "102109.560000", "102110.562500", "102111.567500", "102112.570000", "102113.575000"],
      "ContentTime": ["101620.812000", "101620.812000", "101620.843000", "101620.859000", "101620.859000", "101620.859000", "101620.859000", "101620.859000", "101620.875000", "101620.875000", "101620.875000", "101620.875000", "101620.890000", "101620.890000", "101620.890000", "101620.890000", "101620.890000", "101620.890000", "101620.890000", "101620.890000", "101620.906000", "101620.906000", "101620.906000", "101620.906000", "101620.906000", "101620.906000", "101620.906000", "101620.921000", "101620.921000", "101620.921000", "101620.921000", "101620.921000", "101620.921000", "101620.921000", "101620.937000", "101620.937000", "101640.765000", "101640.765000", "101640.765000", "101640.765000", "101640.765000", "101640.765000", "101640.781000", "101640.781000", "101640.781000", "101640.781000", "101640.796000", "101640.796000", "101640.796000", "101640.796000", "101640.796000", "101640.796000", "101640.812000", "101640.812000", "101640.828000", "101640.828000", "101700.765000", "101700.765000", "101700.765000", "101700.765000", "101700.765000", "101700.765000", "101700.781000", "101700.781000", "101700.781000", "101700.781000", "101700.781000", "101700.781000", "101700.781000", "101700.781000", "101700.796000", "101700.796000", "101700.796000", "101700.796000", "101700.796000", "101700.812000", "101720.765000", "101720.765000", "101720.765000", "101720.765000", "101720.765000", "101720.765000", "101720.781000", "101720.781000", "101720.781000", "101720.781000", "101720.781000", "101720.781000", "101720.796000", "101720.796000", "101720.796000", "101720.812000", "101720.812000", "101720.812000", "101720.812000", "101720.812000", "101740.765000", "101740.765000", "101740.765000", "101740.765000", "101740.765000", "101740.765000", "101740.781000", "101740.781000", "101740.781000", "101740.781000", "101740.781000", "101740.781000", "101740.781000", "101740.781000", "101740.796000", "101740.796000", "101740.796000", "101740.796000", "101740.796000", "101740.796000", "101800.765000", "101800.765000", "101800.765000", "101800.765000", "101800.781000", "101800.781000", "101800.781000", "101800.781000", "101800.781000", "101800.781000", "101800.781000", "101800.796000", "101800.796000", "101800.796000", "101800.796000", "101800.796000", "101800.796000", "101800.812000", "101800.812000", "101800.812000", "101820.765000", "101820.765000", "101820.765000", "101820.765000", "101820.765000", "101820.781000", "101820.781000", "101820.781000", "101820.781000", "101820.781000", "101820.781000", "101820.781000", "101820.781000", "101820.796000", "101820.796000", "101820.796000", "101820.796000", "101820.812000", "101820.812000", "101820.812000", "101840.765000", "101840.765000", "101840.765000", "101840.765000", "101840.765000", "101840.765000", "101840.781000", "101840.781000", "101840.781000", "101840.781000", "101840.781000", "101840.796000", "101840.796000", "101840.796000", "101840.796000", "101840.796000", "101840.796000", "101840.796000", "101840.812000", "101840.812000", "101900.765000", "101900.765000", "101900.765000", "101900.781000", "101900.781000", "101900.781000", "101900.796000", "101900.796000", "101900.796000", "101900.796000", "101900.796000", "101900.796000", "101900.796000", "101900.812000", "101900.812000", "101900.828000", "101900.828000", "101900.828000", "101900.828000", "101900.828000", "101920.765000", "101920.765000", "101920.765000", "101920.765000", "101920.765000", "101920.765000", "101920.781000", "101920.781000", "101920.781000", "101920.781000", "101920.781000", "101920.781000", "101920.781000", "101920.781000", "101920.796000", "101920.796000", "101920.796000", "101920.796000", "101920.796000", "101920.796000", "101940.765000", "101940.765000", "101940.765000", "101940.765000", "101940.781000", "101940.781000", "101940.781000", "101940.781000", "101940.781000", "101940.781000", "101940.796000", "101940.796000", "101940.796000", "101940.796000", "101940.796000", "101940.796000", "101940.796000", "101940.812000", "101940.812000", "101940.812000", "102000.765000", "102000.765000", "102000.765000", "102000.765000", "102000.765000", "102000.781000", "102000.781000", "102000.781000", "102000.781000", "102000.781000", "102000.781000", "102000.781000", "102000.796000", "102000.796000", "102000.796000", "102000.796000", "102000.796000", "102000.796000", "102000.796000", "102000.796000", "102020.765000", "102020.765000", "102020.765000", "102020.765000", "102020.765000", "102020.765000", "102020.781000", "102020.781000", "102020.781000", "102020.781000", "102020.781000", "102020.781000", "102020.781000", "102020.796000", "102020.796000", "102020.796000", "102020.796000", "102020.796000", "102020.796000", "102020.796000", "102040.765000", "102040.765000", "102040.765000", "102040.765000", "102040.781000", "102040.781000", "102040.781000", "102040.781000", "102040.781000", "102040.796000", "102040.796000", "102040.796000", "102040.796000", "102040.796000", "102040.796000", "102040.812000", "102040.812000", "102040.812000", "102040.812000", "102040.812000", "102100.765000", "102100.765000", "102100.765000", "102100.765000", "102100.765000", "102100.765000", "102100.781000", "102100.781000", "102100.781000", "102100.781000", "102100.781000", "102100.796000", "102100.796000", "102100.796000", "102100.796000", "102100.796000", "102100.796000", "102100.796000", "102100.812000", "102100.828000", "102118.812000", "102118.812000", "102118.812000", "102118.828000", "102118.828000", "102118.828000", "102118.828000", "102118.828000", "102118.828000", "102118.828000", "102118.828000", "102118.843000", "102118.843000", "102118.843000"],
      "InstanceCreationTime": ["101620.812000", "101620.812000", "101620.843000", "101620.859000", "101620.859000", "101620.859000", "101620.859000", "101620.859000", "101620.875000", "101620.875000", "101620.875000", "101620.875000", "101620.890000", "101620.890000", "101620.890000", "101620.890000", "101620.890000", "101620.890000", "101620.890000", "101620.890000", "101620.906000", "101620.906000", "101620.906000", "101620.906000", "101620.906000", "101620.906000", "101620.906000", "101620.921000", "101620.921000", "101620.921000", "101620.921000", "101620.921000", "101620.921000", "101620.921000", "101620.937000", "101620.937000", "101640.765000", "101640.765000", "101640.765000", "101640.765000", "101640.765000", "101640.765000", "101640.781000", "101640.781000", "101640.781000", "101640.781000", "101640.796000", "101640.796000", "101640.796000", "101640.796000", "101640.796000", "101640.796000", "101640.812000", "101640.812000", "101640.828000", "101640.828000", "101700.765000", "101700.765000", "101700.765000", "101700.765000", "101700.765000", "101700.765000", "101700.781000", "101700.781000", "101700.781000", "101700.781000", "101700.781000", "101700.781000", "101700.781000", "101700.781000", "101700.796000", "101700.796000", "101700.796000", "101700.796000", "101700.796000", "101700.812000", "101720.765000", "101720.765000", "101720.765000", "101720.765000", "101720.765000", "101720.765000", "101720.781000", "101720.781000", "101720.781000", "101720.781000", "101720.781000", "101720.781000", "101720.796000", "101720.796000", "101720.796000", "101720.812000", "101720.812000", "101720.812000", "101720.812000", "101720.812000", "101740.765000", "101740.765000", "101740.765000", "101740.765000", "101740.765000", "101740.765000", "101740.781000", "101740.781000", "101740.781000", "101740.781000", "101740.781000", "101740.781000", "101740.781000", "101740.781000", "101740.796000", "101740.796000", "101740.796000", "101740.796000", "101740.796000", "101740.796000", "101800.765000", "101800.765000", "101800.765000", "101800.765000", "101800.781000", "101800.781000", "101800.781000", "101800.781000", "101800.781000", "101800.781000", "101800.781000", "101800.796000", "101800.796000", "101800.796000", "101800.796000", "101800.796000", "101800.796000", "101800.812000", "101800.812000", "101800.812000", "101820.765000", "101820.765000", "101820.765000", "101820.765000", "101820.765000", "101820.781000", "101820.781000", "101820.781000", "101820.781000", "101820.781000", "101820.781000", "101820.781000", "101820.781000", "101820.796000", "101820.796000", "101820.796000", "101820.796000", "101820.812000", "101820.812000", "101820.812000", "101840.765000", "101840.765000", "101840.765000", "101840.765000", "101840.765000", "101840.765000", "101840.781000", "101840.781000", "101840.781000", "101840.781000", "101840.781000", "101840.796000", "101840.796000", "101840.796000", "101840.796000", "101840.796000", "101840.796000", "101840.796000", "101840.812000", "101840.812000", "101900.765000", "101900.765000", "101900.765000", "101900.781000", "101900.781000", "101900.781000", "101900.796000", "101900.796000", "101900.796000", "101900.796000", "101900.796000", "101900.796000", "101900.796000", "101900.812000", "101900.812000", "101900.828000", "101900.828000", "101900.828000", "101900.828000", "101900.828000", "101920.765000", "101920.765000", "101920.765000", "101920.765000", "101920.765000", "101920.765000", "101920.781000", "101920.781000", "101920.781000", "101920.781000", "101920.781000", "101920.781000", "101920.781000", "101920.781000", "101920.796000", "101920.796000", "101920.796000", "101920.796000", "101920.796000", "101920.796000", "101940.765000", "101940.765000", "101940.765000", "101940.765000", "101940.781000", "101940.781000", "101940.781000", "101940.781000", "101940.781000", "101940.781000", "101940.796000", "101940.796000", "101940.796000", "101940.796000", "101940.796000", "101940.796000", "101940.796000", "101940.812000", "101940.812000", "101940.812000", "102000.765000", "102000.765000", "102000.765000", "102000.765000", "102000.765000", "102000.781000", "102000.781000", "102000.781000", "102000.781000", "102000.781000", "102000.781000", "102000.781000", "102000.796000", "102000.796000", "102000.796000", "102000.796000", "102000.796000", "102000.796000", "102000.796000", "102000.796000", "102020.765000", "102020.765000", "102020.765000", "102020.765000", "102020.765000", "102020.765000", "102020.781000", "102020.781000", "102020.781000", "102020.781000", "102020.781000", "102020.781000", "102020.781000", "102020.796000", "102020.796000", "102020.796000", "102020.796000", "102020.796000", "102020.796000", "102020.796000", "102040.765000", "102040.765000", "102040.765000", "102040.765000", "102040.781000", "102040.781000", "102040.781000", "102040.781000", "102040.781000", "102040.796000", "102040.796000", "102040.796000", "102040.796000", "102040.796000", "102040.796000", "102040.812000", "102040.812000", "102040.812000", "102040.812000", "102040.812000", "102100.765000", "102100.765000", "102100.765000", "102100.765000", "102100.765000", "102100.765000", "102100.781000", "102100.781000", "102100.781000", "102100.781000", "102100.781000", "102100.796000", "102100.796000", "102100.796000", "102100.796000", "102100.796000", "102100.796000", "102100.796000", "102100.812000", "102100.828000", "102118.812000", "102118.812000", "102118.812000", "102118.828000", "102118.828000", "102118.828000", "102118.828000", "102118.828000", "102118.828000", "102118.828000", "102118.828000", "102118.843000", "102118.843000", "102118.843000"],
      "InstanceNumber": [1, 2, 3, 4, 5, 6, 7, 8, 9, 10, 11, 12, 13, 14, 15, 16, 17, 18, 19, 20, 21, 22, 23, 24, 25, 26, 27, 28, 29, 30, 31, 32, 33, 34, 35, 36, 37, 38, 39, 40, 41, 42, 43, 44, 45, 46, 47, 48, 49, 50, 51, 52, 53, 54, 55, 56, 57, 58, 59, 60, 61, 62, 63, 64, 65, 66, 67, 68, 69, 70, 71, 72, 73, 74, 75, 76, 77, 78, 79, 80, 81, 82, 83, 84, 85, 86, 87, 88, 89, 90, 91, 92, 93, 94, 95, 96, 97, 98, 99, 100, 101, 102, 103, 104, 105, 106, 107, 108, 109, 110, 111, 112, 113, 114, 115, 116, 117, 118, 119, 120, 121, 122, 123, 124, 125, 126, 127, 128, 129, 130, 131, 132, 133, 134, 135, 136, 137, 138, 139, 140, 141, 142, 143, 144, 145, 146, 147, 148, 149, 150, 151, 152, 153, 154, 155, 156, 157, 158, 159, 160, 161, 162, 163, 164, 165, 166, 167, 168, 169, 170, 171, 172, 173, 174, 175, 176, 177, 178, 179, 180, 181, 182, 183, 184, 185, 186, 187, 188, 189, 190, 191, 192, 193, 194, 195, 196, 197, 198, 199, 200, 201, 202, 203, 204, 205, 206, 207, 208, 209, 210, 211, 212, 213, 214, 215, 216, 217, 218, 219, 220, 221, 222, 223, 224, 225, 226, 227, 228, 229, 230, 231, 232, 233, 234, 235, 236, 237, 238, 239, 240, 241, 242, 243, 244, 245, 246, 247, 248, 249, 250, 251, 252, 253, 254, 255, 256, 257, 258, 259, 260, 261, 262, 263, 264, 265, 266, 267, 268, 269, 270, 271, 272, 273, 274, 275, 276, 277, 278, 279, 280, 281, 282, 283, 284, 285, 286, 287, 288, 289, 290, 291, 292, 293, 294, 295, 296, 297, 298, 299, 300, 301, 302, 303, 304, 305, 306, 307, 308, 309, 310, 311, 312, 313, 314, 315, 316, 317, 318, 319, 320, 321, 322, 323, 324, 325, 326, 327, 328, 329, 330],
      "LargestImagePixelValue": [3006, 2915, 2935, 2932, 2852, 2902, 2953, 2847, 2916, 2916, 2884, 2897, 2926, 2876, 2840, 2925, 2921, 2798, 2919, 2859, 2887, 2818, 2915, 2912, 2875, 2886, 2922, 2800, 2846, 2822, 2873, 2899, 2924, 2893, 2886, 2952, 2932, 2905, 2967, 2880, 2790, 2876, 2921, 2873, 2906, 2938, 2828, 2899, 2917, 2855, 2814, 2845, 2855, 2860, 2839, 2830, 2777, 2836, 2848, 2765, 2830, 2860, 2841, 2883, 2861, 2879, 2836, 2952, 2952, 2816, 2896, 2818, 2873, 2890, 2894, 2854, 2873, 2921, 2885, 2823, 2851, 2841, 2875, 2915, 2917, 2846, 2888, 2939, 2789, 2913, 2866, 2810, 2868, 2877, 2678, 2686, 2733, 2774, 2819, 2772, 2750, 2751, 2799, 2817, 2738, 2783, 2817, 2840, 2940, 2931, 2844, 2872, 2920, 2803, 2946, 2884, 2872, 2961, 2933, 2845, 2885, 2879, 2838, 2789, 2871, 2911, 2861, 2860, 2862, 2849, 2923, 2858, 2860, 2794, 2913, 2875, 2857, 2864, 2892, 2793, 2789, 2899, 2900, 2840, 2950, 2845, 2840, 2882, 2863, 2799, 2766, 2862, 2871, 2866, 2904, 2880, 2863, 2864, 2882, 2823, 2685, 2542, 2825, 2942, 2845, 2920, 2908, 2776, 2856, 2897, 2837, 2840, 2939, 2814, 2841, 2899, 2907, 2783, 2909, 2861, 2778, 2867, 2867, 2926, 2799, 2869, 2913, 2829, 2784, 2892, 2853, 2820, 2890, 2913, 2861, 2749, 2850, 2852, 2788, 2991, 2848, 2854, 2889, 2926, 2847, 2853, 2913, 2889, 2817, 2809, 2908, 2864, 2853, 2846, 2887, 2575, 2690, 2834, 2686, 2824, 2841, 2654, 2805, 2778, 2668, 2854, 2855, 2888, 2842, 2798, 2854, 2783, 2877, 2868, 2792, 2911, 2943, 2957, 2853, 2909, 2916, 2854, 2851, 2864, 2873, 2758, 2771, 2796, 2707, 2747, 2823, 2840, 2739, 2810, 2791, 2554, 2557, 2535, 2592, 2775, 2769, 2761, 2841, 2793, 2733, 2723, 2768, 2767, 2778, 2830, 2851, 2790, 2705, 2814, 2660, 2694, 2774, 2829, 2822, 2721, 2858, 2777, 2763, 2859, 2772, 2708, 2755, 2872, 2851, 2717, 2792, 2886, 2735, 2785, 2825, 2717, 2692, 2861, 2797, 2616, 2688, 2781, 2847, 2746, 2792, 2734, 2689, 2764, 2783, 2642, 2829, 2889, 2794, 2870, 2838, 2747, 2725, 2818, 2849, 2685, 2790, 2857, 2865, 2736, 2875, 2813, 2719, 2846, 2825, 2708],
      "WindowCenter": [458.0, 456.0, 456.0, 456.0, 455.0, 455.0, 455.0, 454.0, 455.0, 455.0, 455.0, 455.0, 455.0, 455.0, 454.0, 455.0, 455.0, 454.0, 455.0, 455.0, 456.0, 456.0, 457.0, 457.0, 457.0, 456.0, 454.0, 452.0, 452.0, 453.0, 454.0, 456.0, 457.0, 457.0, 456.0, 455.0, 455.0, 454.0, 456.0, 456.0, 456.0, 457.0, 457.0, 456.0, 456.0, 456.0, 455.0, 455.0, 455.0, 456.0, 456.0, 458.0, 458.0, 457.0, 455.0, 453.0, 453.0, 453.0, 453.0, 453.0, 455.0, 456.0, 456.0, 457.0, 456.0, 456.0, 455.0, 455.0, 455.0, 454.0, 455.0, 456.0, 457.0, 457.0, 455.0, 455.0, 454.0, 454.0, 454.0, 454.0, 455.0, 456.0, 457.0, 457.0, 456.0, 455.0, 455.0, 455.0, 455.0, 455.0, 454.0, 453.0, 454.0, 455.0, 454.0, 455.0, 457.0, 458.0, 458.0, 456.0, 455.0, 453.0, 453.0, 453.0, 453.0, 455.0, 457.0, 458.0, 458.0, 458.0, 457.0, 456.0, 456.0, 456.0, 457.0, 458.0, 458.0, 460.0, 460.0, 459.0, 457.0, 457.0, 456.0, 456.0, 457.0, 458.0, 458.0, 458.0, 457.0, 456.0, 455.0, 455.0, 455.0, 455.0, 456.0, 457.0, 456.0, 456.0, 455.0, 454.0, 454.0, 455.0, 456.0, 456.0, 458.0, 456.0, 456.0, 454.0, 454.0, 454.0, 455.0, 458.0, 458.0, 457.0, 456.0, 455.0, 454.0, 453.0, 452.0, 452.0, 453.0, 454.0, 458.0, 459.0, 456.0, 455.0, 454.0, 454.0, 454.0, 455.0, 454.0, 455.0, 455.0, 455.0, 456.0, 455.0, 455.0, 454.0, 454.0, 454.0, 455.0, 456.0, 458.0, 458.0, 456.0, 455.0, 455.0, 454.0, 454.0, 456.0, 457.0, 458.0, 458.0, 457.0, 456.0, 454.0, 455.0, 454.0, 455.0, 457.0, 456.0, 456.0, 456.0, 455.0, 453.0, 453.0, 454.0, 454.0, 454.0, 455.0, 456.0, 456.0, 455.0, 455.0, 454.0, 453.0, 455.0, 457.0, 457.0, 457.0, 456.0, 454.0, 453.0, 453.0, 452.0, 456.0, 458.0, 459.0, 458.0, 456.0, 456.0, 455.0, 455.0, 456.0, 456.0, 458.0, 458.0, 458.0, 456.0, 456.0, 456.0, 456.0, 456.0, 457.0, 457.0, 455.0, 455.0, 455.0, 455.0, 456.0, 458.0, 457.0, 455.0, 455.0, 454.0, 454.0, 454.0, 456.0, 458.0, 458.0, 456.0, 454.0, 452.0, 452.0, 452.0, 454.0, 455.0, 455.0, 454.0, 453.0, 452.0, 451.0, 450.0, 451.0, 450.0, 452.0, 454.0, 456.0, 456.0, 455.0, 456.0, 456.0, 455.0, 457.0, 456.0, 455.0, 456.0, 458.0, 457.0, 457.0, 457.0, 458.0, 457.0, 457.0, 456.0, 456.0, 455.0, 456.0, 457.0, 456.0, 456.0, 459.0, 459.0, 457.0, 456.0, 455.0, 453.0, 455.0, 456.0, 456.0, 458.0, 458.0, 456.0, 456.0, 455.0, 454.0, 454.0, 455.0, 456.0, 457.0, 458.0, 458.0, 457.0, 455.0, 455.0, 455.0, 455.0, 455.0, 456.0, 455.0],
