{
  "AcquisitionMatrixPE": 104,
  "AcquisitionNumber": 1,
  "AcquisitionTime": "09:26:46.232500",
  "BandwidthPerPixelPhaseEncode": 43.054,
  "BaseResolution": 104,
  "CoilString": "C:E1_2",
  "ConversionSoftware": "dcm2niix",
  "ConversionSoftwareVersion": "v1.0.20191031",
  "DerivedVendorReportedEchoSpacing": 0.000669999,
  "DeviceSerialNumber": "18932",
  "DwellTime": 2.8e-06,
  "EchoTime": 0.02,
  "EffectiveEchoSpacing": 0.000223333,
  "FlipAngle": 30,
  "ImageComments": "Unaliased_MB2_PE2",
  "ImageOrientationPatientDICOM": [1, 0, 0, 0, 0.943223, -0.332161],
  "ImageType": [
    "ORIGINAL",
    "PRIMARY",
    "M",
    "MB",
    "ND",
    "MOSAIC"
],
  "ImagingFrequency": 297.229,
  "InPlanePhaseEncodingDirectionDICOM": "COL",
  "InstitutionAddress": "Richmond_Street_North_1151_London_409EF2_Ontario_CA_N6A_5B7",
  "InstitutionName": "Robarts_Reserch_Institute",
  "InstitutionalDepartmentName": "Department",
  "MRAcquisitionType": "2D",
  "MagneticFieldStrength": 6.98,
  "Manufacturer": "Siemens",
  "ManufacturersModelName": "Investigational_Device_7T",
  "Modality": "MR",
  "MultibandAccelerationFactor": 2,
  "ParallelReductionFactorInPlane": 3,
  "PartialFourier": 0.875,
  "PatientPosition": "HFS",
  "PercentPhaseFOV": 100,
  "PhaseEncodingDirection": "j-",
  "PhaseEncodingSteps": 91,
  "PhaseResolution": 1,
  "PixelBandwidth": 1717,
  "ProcedureStepDescription": "Diedrichsen_SeqRep4",
  "ProtocolName": "mbep2d_bold_mb2_p3_AP_2iso",
  "PulseSequenceDetails": "%CustomerSeq%_cmrr_mbep2d_bold",
  "ReceiveCoilName": "CFMM_8Tx32Rx",
  "ReconMatrixPE": 104,
  "RefLinesPE": 36,
  "RepetitionTime": 1,
  "ScanOptions": "PFP_FS",
  "ScanningSequence": "EP",
  "SequenceName": "epfid2d1_104",
  "SequenceVariant": "SK_SS",
  "SeriesDescription": "mbep2d_bold_mb2_p3_AP_2iso",
  "SeriesNumber": 17,
  "ShimSetting": [-5, 2173, 67, 1641, -25, 214, 198, -161],
  "SliceThickness": 2,
  "SliceTiming": [0, 0.23, 0.4575, 0.685, 0.9125, 0.1375, 0.365, 0.595, 0.8225, 0.0475, 0.275, 0.5025, 0.73, 0.9575, 0.1825, 0.4125, 0.64, 0.8675, 0.0925, 0.32, 0.5475, 0.775, 0, 0.23, 0.4575, 0.685, 0.9125, 0.1375, 0.365, 0.595, 0.8225, 0.0475, 0.275, 0.5025, 0.73, 0.9575, 0.1825, 0.4125, 0.64, 0.8675, 0.0925, 0.32, 0.5475, 0.775],
  "SoftwareVersions": "syngo_MR_B17",
  "SpacingBetweenSlices": 2,
  "StationName": "MASTER",
  "TaskName": "dsp",
  "TotalReadoutTime": 0.0230033,
  "TxRefAmp": 120,
  "dcmmeta_affine": [
    [-2.0, 0.0, 0.0, 108.35835266113281],
    [0.0, 1.8864452838897705, -0.6643223166465759, -99.36136627197266],
    [0.0, 0.6643223166465759, 1.8864452838897705, -51.97029495239258],
    [0.0, 0.0, 0.0, 1.0]
],
  "dcmmeta_reorient_transform": [
    [0.0, -1.0, 0.0, 103.0],
    [1.0, 0.0, 0.0, 0.0],
    [0.0, 0.0, 1.0, 0.0],
    [0.0, 0.0, 0.0, 1.0]
],
  "dcmmeta_shape": [104, 104, 44, 330],
  "dcmmeta_slice_dim": 2,
  "dcmmeta_version": 0.6,
  "global": {
    "const": {
      "AcquisitionMatrix": [104, 0, 0, 104],
      "AngioFlag": "N",
      "BitsAllocated": 16,
      "BitsStored": 12,
      "Columns": 728,
      "EchoNumbers": 1,
      "EchoTime": 20.0,
      "EchoTrainLength": 1,
      "FlipAngle": 30.0,
      "HighBit": 11,
      "ImageOrientationPatient": [1.0, 0.0, 0.0, 0.0, 0.94322265279987, -0.3321611465015],
      "ImagePositionPatient": [-732.35835361481, -683.51343778257, 223.72345564428],
      "ImageType": [
        "ORIGINAL",
        "PRIMARY",
        "M",
        "MB",
        "ND",
        "MOSAIC"
],
      "ImagedNucleus": "1H",
      "ImagingFrequency": 297.228768,
      "InPlanePhaseEncodingDirection": "COL",
      "MRAcquisitionType": "2D",
      "MagneticFieldStrength": 6.98,
      "Manufacturer": "SIEMENS",
      "ManufacturerModelName": "Investigational_Device_7T",
      "Modality": "MR",
      "NumberOfAverages": 1.0,
      "NumberOfPhaseEncodingSteps": 91,
      "PercentPhaseFieldOfView": 100.0,
      "PercentSampling": 100.0,
      "PerformedProcedureStepStartTime": "085045.000000",
      "PhotometricInterpretation": "MONOCHROME2",
      "PixelBandwidth": 1717.0,
      "PixelRepresentation": 0,
      "PixelSpacing": [2.0, 2.0],
      "ProtocolName": "mbep2d_bold_mb2_p3_AP 2iso",
      "RepetitionTime": 1000.0,
      "Rows": 728,
      "SAR": 0.0,
      "SamplesPerPixel": 1,
      "ScanOptions": [
        "PFP",
        "FS"
],
      "ScanningSequence": "EP",
      "SequenceName": "epfid2d1_104",
      "SequenceVariant": [
        "SK",
        "SS"
],
      "SeriesDescription": "mbep2d_bold_mb2_p3_AP 2iso",
      "SeriesNumber": 17,
      "SeriesTime": "092720.828000",
      "SliceLocation": -16.015575816667,
      "SliceThickness": 2.0,
      "SmallestImagePixelValue": 0,
      "SoftwareVersions": "syngo MR B17",
      "SpacingBetweenSlices": 2.0000000229338,
      "SpecificCharacterSet": "ISO_IR 100",
      "StudyID": "1",
      "StudyTime": "085044.875000",
      "TransmitCoilName": "CFMM_8Tx32Rx",
      "VariableFlipAngleFlag": "N",
      "WindowCenterWidthExplanation": "Algo1",
      "dBdt": 0.0},
    "slices": {}
  },
  "time": {
    "samples": {
      "AcquisitionNumber": [1, 2, 3, 4, 5, 6, 7, 8, 9, 10, 11, 12, 13, 14, 15, 16, 17, 18, 19, 20, 21, 22, 23, 24, 25, 26, 27, 28, 29, 30, 31, 32, 33, 34, 35, 36, 37, 38, 39, 40, 41, 42, 43, 44, 45, 46, 47, 48, 49, 50, 51, 52, 53, 54, 55, 56, 57, 58, 59, 60, 61, 62, 63, 64, 65, 66, 67, 68, 69, 70, 71, 72, 73, 74, 75, 76, 77, 78, 79, 80, 81, 82, 83, 84, 85, 86, 87, 88, 89, 90, 91, 92, 93, 94, 95, 96, 97, 98, 99, 100, 101, 102, 103, 104, 105, 106, 107, 108, 109, 110, 111, 112, 113, 114, 115, 116, 117, 118, 119, 120, 121, 122, 123, 124, 125, 126, 127, 128, 129, 130, 131, 132, 133, 134, 135, 136, 137, 138, 139, 140, 141, 142, 143, 144, 145, 146, 147, 148, 149, 150, 151, 152, 153, 154, 155, 156, 157, 158, 159, 160, 161, 162, 163, 164, 165, 166, 167, 168, 169, 170, 171, 172, 173, 174, 175, 176, 177, 178, 179, 180, 181, 182, 183, 184, 185, 186, 187, 188, 189, 190, 191, 192, 193, 194, 195, 196, 197, 198, 199, 200, 201, 202, 203, 204, 205, 206, 207, 208, 209, 210, 211, 212, 213, 214, 215, 216, 217, 218, 219, 220, 221, 222, 223, 224, 225, 226, 227, 228, 229, 230, 231, 232, 233, 234, 235, 236, 237, 238, 239, 240, 241, 242, 243, 244, 245, 246, 247, 248, 249, 250, 251, 252, 253, 254, 255, 256, 257, 258, 259, 260, 261, 262, 263, 264, 265, 266, 267, 268, 269, 270, 271, 272, 273, 274, 275, 276, 277, 278, 279, 280, 281, 282, 283, 284, 285, 286, 287, 288, 289, 290, 291, 292, 293, 294, 295, 296, 297, 298, 299, 300, 301, 302, 303, 304, 305, 306, 307, 308, 309, 310, 311, 312, 313, 314, 315, 316, 317, 318, 319, 320, 321, 322, 323, 324, 325, 326, 327, 328, 329, 330],
      "AcquisitionTime": ["092646.232500", "092647.237500", "092648.242500", "092649.245000", "092650.250000", "092651.252500", "092652.257500", "092653.262500", "092654.265000", "092655.270000", "092656.272500", "092657.277500", "092658.282500", "092659.285000", "092700.290000", "092701.292500", "092702.297500", "092703.302500", "092704.305000", "092705.310000", "092706.312500", "092707.317500", "092708.322500", "092709.325000", "092710.330000", "092711.332500", "092712.337500", "092713.342500", "092714.345000", "092715.350000", "092716.355000", "092717.357500", "092718.362500", "092719.365000", "092720.370000", "092721.375000", "092722.377500", "092723.382500", "092724.385000", "092725.390000", "092726.395000", "092727.397500", "092728.402500", "092729.405000", "092730.410000", "092731.415000", "092732.417500", "092733.422500", "092734.425000", "092735.430000", "092736.435000", "092737.437500", "092738.442500", "092739.445000", "092740.450000", "092741.455000", "092742.457500", "092743.462500", "092744.467500", "092745.470000", "092746.475000", "092747.477500", "092748.482500", "092749.487500", "092750.490000", "092751.495000", "092752.497500", "092753.502500", "092754.507500", "092755.510000", "092756.515000", "092757.517500", "092758.522500", "092759.527500", "092800.530000", "092801.535000", "092802.537500", "092803.542500", "092804.547500", "092805.550000", "092806.555000", "092807.557500", "092808.562500", "092809.567500", "092810.570000", "092811.575000", "092812.577500", "092813.582500", "092814.587500", "092815.590000", "092816.595000", "092817.600000", "092818.602500", "092819.607500", "092820.610000", "092821.615000", "092822.620000", "092823.622500", "092824.627500", "092825.630000", "092826.635000", "092827.640000", "092828.642500", "092829.647500", "092830.650000", "092831.655000", "092832.660000", "092833.662500", "092834.667500", "092835.670000", "092836.675000", "092837.680000", "092838.682500", "092839.687500", "092840.690000", "092841.695000", "092842.700000", "092843.702500", "092844.707500", "092845.710000", "092846.715000", "092847.720000", "092848.722500", "092849.727500", "092850.732500", "092851.735000", "092852.740000", "092853.742500", "092854.747500", "092855.752500", "092856.755000", "092857.760000", "092858.762500", "092859.767500", "092900.772500", "092901.775000", "092902.780000", "092903.782500", "092904.787500", "092905.792500", "092906.795000", "092907.800000", "092908.802500", "092909.807500", "092910.812500", "092911.815000", "092912.820000", "092913.822500", "092914.827500", "092915.832500", "092916.835000", "092917.840000", "092918.845000", "092919.847500", "092920.852500", "092921.855000", "092922.860000", "092923.865000", "092924.867500", "092925.872500", "092926.875000", "092927.880000", "092928.885000", "092929.887500", "092930.892500", "092931.895000", "092932.900000", "092933.905000", "092934.907500", "092935.912500", "092936.915000", "092937.920000", "092938.925000", "092939.927500", "092940.932500", "092941.935000", "092942.940000", "092943.945000", "092944.947500", "092945.952500", "092946.955000", "092947.960000", "092948.965000", "092949.967500", "092950.972500", "092951.977500", "092952.980000", "092953.985000", "092954.987500", "092955.992500", "092956.997500", "092958.000000", "092959.005000", "093000.007500", "093001.012500", "093002.017500", "093003.020000", "093004.025000", "093005.027500", "093006.032500", "093007.037500", "093008.040000", "093009.045000", "093010.047500", "093011.052500", "093012.057500", "093013.060000", "093014.065000", "093015.067500", "093016.072500", "093017.077500", "093018.080000", "093019.085000", "093020.087500", "093021.092500", "093022.097500", "093023.100000", "093024.105000", "093025.110000", "093026.112500", "093027.117500", "093028.120000", "093029.125000", "093030.130000", "093031.132500", "093032.137500", "093033.140000", "093034.145000", "093035.150000", "093036.152500", "093037.157500", "093038.160000", "093039.165000", "093040.170000", "093041.172500", "093042.177500", "093043.180000", "093044.185000", "093045.190000", "093046.192500", "093047.197500", "093048.200000", "093049.205000", "093050.210000", "093051.212500", "093052.217500", "093053.222500", "093054.225000", "093055.230000", "093056.232500", "093057.237500", "093058.242500", "093059.245000", "093100.250000", "093101.252500", "093102.257500", "093103.262500", "093104.265000", "093105.270000", "093106.272500", "093107.277500", "093108.282500", "093109.285000", "093110.290000", "093111.292500", "093112.297500", "093113.302500", "093114.305000", "093115.310000", "093116.312500", "093117.317500", "093118.322500", "093119.325000", "093120.330000", "093121.332500", "093122.337500", "093123.342500", "093124.345000", "093125.350000", "093126.355000", "093127.357500", "093128.362500", "093129.365000", "093130.370000", "093131.375000", "093132.377500", "093133.382500", "093134.385000", "093135.390000", "093136.395000", "093137.397500", "093138.402500", "093139.405000", "093140.410000", "093141.415000", "093142.417500", "093143.422500", "093144.425000", "093145.430000", "093146.435000", "093147.437500", "093148.442500", "093149.445000", "093150.450000", "093151.455000", "093152.457500", "093153.462500", "093154.467500", "093155.470000", "093156.475000", "093157.477500", "093158.482500", "093159.487500", "093200.490000", "093201.495000", "093202.497500", "093203.502500", "093204.507500", "093205.510000", "093206.515000", "093207.517500", "093208.522500", "093209.527500", "093210.530000", "093211.535000", "093212.537500", "093213.542500", "093214.547500", "093215.550000", "093216.555000"],
      "ContentTime": ["092720.828000", "092720.828000", "092720.828000", "092720.828000", "092720.828000", "092720.843000", "092720.843000", "092720.843000", "092720.843000", "092720.843000", "092720.843000", "092720.843000", "092720.843000", "092720.859000", "092720.859000", "092720.859000", "092720.859000", "092720.859000", "092720.859000", "092720.859000", "092720.875000", "092720.875000", "092720.875000", "092720.875000", "092720.875000", "092720.875000", "092720.875000", "092720.875000", "092720.890000", "092720.890000", "092720.890000", "092720.890000", "092720.890000", "092740.796000", "092740.796000", "092740.796000", "092740.796000", "092740.796000", "092740.796000", "092740.812000", "092740.812000", "092740.812000", "092740.812000", "092740.812000", "092740.812000", "092740.812000", "092740.828000", "092740.828000", "092740.828000", "092740.828000", "092740.828000", "092740.828000", "092740.828000", "092800.796000", "092800.796000", "092800.796000", "092800.796000", "092800.796000", "092800.812000", "092800.812000", "092800.812000", "092800.812000", "092800.812000", "092800.812000", "092800.828000", "092800.828000", "092800.828000", "092800.828000", "092800.828000", "092800.828000", "092800.828000", "092800.843000", "092800.843000", "092820.796000", "092820.796000", "092820.796000", "092820.796000", "092820.796000", "092820.796000", "092820.812000", "092820.812000", "092820.812000", "092820.812000", "092820.812000", "092820.812000", "092820.812000", "092820.828000", "092820.828000", "092820.828000", "092820.828000", "092820.828000", "092820.828000", "092820.828000", "092840.796000", "092840.796000", "092840.796000", "092840.796000", "092840.796000", "092840.796000", "092840.812000", "092840.812000", "092840.812000", "092840.812000", "092840.812000", "092840.812000", "092840.812000", "092840.828000", "092840.828000", "092840.828000", "092840.828000", "092840.828000", "092840.828000", "092840.828000", "092900.796000", "092900.796000", "092900.796000", "092900.796000", "092900.796000", "092900.812000", "092900.812000", "092900.812000", "092900.812000", "092900.828000", "092900.828000", "092900.828000", "092900.828000", "092900.828000", "092900.828000", "092900.828000", "092900.843000", "092900.843000", "092900.843000", "092900.843000", "092920.796000", "092920.796000", "092920.796000", "092920.796000", "092920.796000", "092920.796000", "092920.812000", "092920.812000", "092920.812000", "092920.812000", "092920.812000", "092920.812000", "092920.828000", "092920.828000", "092920.828000", "092920.828000", "092920.828000", "092920.828000", "092920.843000", "092920.843000", "092940.796000", "092940.796000", "092940.796000", "092940.812000", "092940.812000", "092940.812000", "092940.812000", "092940.812000", "092940.812000", "092940.812000", "092940.828000", "092940.828000", "092940.828000", "092940.828000", "092940.843000", "092940.843000", "092940.843000", "092940.843000", "092940.859000", "092940.859000", "093000.796000", "093000.796000", "093000.796000", "093000.796000", "093000.812000", "093000.812000", "093000.812000", "093000.812000", "093000.812000", "093000.812000", "093000.812000", "093000.828000", "093000.828000", "093000.828000", "093000.828000", "093000.828000", "093000.828000", "093000.843000", "093000.843000", "093000.843000", "093020.796000", "093020.796000", "093020.796000", "093020.796000", "093020.796000", "093020.796000", "093020.812000", "093020.812000", "093020.812000", "093020.812000", "093020.812000", "093020.812000", "093020.812000", "093020.812000", "093020.828000", "093020.828000", "093020.828000", "093020.828000", "093020.828000", "093020.828000", "093040.796000", "093040.796000", "093040.796000", "093040.796000", "093040.812000", "093040.812000", "093040.812000", "093040.812000", "093040.812000", "093040.812000", "093040.812000", "093040.828000", "093040.828000", "093040.828000", "093040.828000", "093040.828000", "093040.828000", "093040.828000", "093040.828000", "093040.843000", "093100.796000", "093100.796000", "093100.796000", "093100.796000", "093100.796000", "093100.796000", "093100.812000", "093100.812000", "093100.812000", "093100.812000", "093100.812000", "093100.812000", "093100.812000", "093100.828000", "093100.828000", "093100.828000", "093100.828000", "093100.828000", "093100.828000", "093100.828000", "093120.796000", "093120.796000", "093120.796000", "093120.796000", "093120.796000", "093120.796000", "093120.812000", "093120.812000", "093120.812000", "093120.812000", "093120.812000", "093120.812000", "093120.812000", "093120.812000", "093120.828000", "093120.828000", "093120.828000", "093120.828000", "093120.828000", "093120.828000", "093140.796000", "093140.796000", "093140.796000", "093140.796000", "093140.796000", "093140.812000", "093140.812000", "093140.812000", "093140.812000", "093140.812000", "093140.812000", "093140.828000", "093140.828000", "093140.828000", "093140.828000", "093140.828000", "093140.828000", "093140.828000", "093140.828000", "093140.843000", "093200.796000", "093200.796000", "093200.796000", "093200.796000", "093200.796000", "093200.812000", "093200.812000", "093200.812000", "093200.812000", "093200.812000", "093200.812000", "093200.812000", "093200.828000", "093200.828000", "093200.828000", "093200.828000", "093200.828000", "093200.843000", "093200.843000", "093200.843000", "093222.375000", "093222.375000", "093222.375000", "093222.375000", "093222.375000", "093222.375000", "093222.390000", "093222.390000", "093222.390000", "093222.390000", "093222.390000", "093222.390000", "093222.390000", "093222.406000", "093222.406000", "093222.406000", "093222.406000"],
      "InstanceCreationTime": ["092720.828000", "092720.828000", "092720.828000", "092720.828000", "092720.828000", "092720.843000", "092720.843000", "092720.843000", "092720.843000", "092720.843000", "092720.843000", "092720.843000", "092720.843000", "092720.859000", "092720.859000", "092720.859000", "092720.859000", "092720.859000", "092720.859000", "092720.859000", "092720.875000", "092720.875000", "092720.875000", "092720.875000", "092720.875000", "092720.875000", "092720.875000", "092720.875000", "092720.890000", "092720.890000", "092720.890000", "092720.890000", "092720.890000", "092740.796000", "092740.796000", "092740.796000", "092740.796000", "092740.796000", "092740.796000", "092740.812000", "092740.812000", "092740.812000", "092740.812000", "092740.812000", "092740.812000", "092740.812000", "092740.828000", "092740.828000", "092740.828000", "092740.828000", "092740.828000", "092740.828000", "092740.828000", "092800.796000", "092800.796000", "092800.796000", "092800.796000", "092800.796000", "092800.812000", "092800.812000", "092800.812000", "092800.812000", "092800.812000", "092800.812000", "092800.828000", "092800.828000", "092800.828000", "092800.828000", "092800.828000", "092800.828000", "092800.828000", "092800.843000", "092800.843000", "092820.796000", "092820.796000", "092820.796000", "092820.796000", "092820.796000", "092820.796000", "092820.812000", "092820.812000", "092820.812000", "092820.812000", "092820.812000", "092820.812000", "092820.812000", "092820.828000", "092820.828000", "092820.828000", "092820.828000", "092820.828000", "092820.828000", "092820.828000", "092840.796000", "092840.796000", "092840.796000", "092840.796000", "092840.796000", "092840.796000", "092840.812000", "092840.812000", "092840.812000", "092840.812000", "092840.812000", "092840.812000", "092840.812000", "092840.828000", "092840.828000", "092840.828000", "092840.828000", "092840.828000", "092840.828000", "092840.828000", "092900.796000", "092900.796000", "092900.796000", "092900.796000", "092900.796000", "092900.812000", "092900.812000", "092900.812000", "092900.812000", "092900.828000", "092900.828000", "092900.828000", "092900.828000", "092900.828000", "092900.828000", "092900.828000", "092900.843000", "092900.843000", "092900.843000", "092900.843000", "092920.796000", "092920.796000", "092920.796000", "092920.796000", "092920.796000", "092920.796000", "092920.812000", "092920.812000", "092920.812000", "092920.812000", "092920.812000", "092920.812000", "092920.828000", "092920.828000", "092920.828000", "092920.828000", "092920.828000", "092920.828000", "092920.843000", "092920.843000", "092940.796000", "092940.796000", "092940.796000", "092940.812000", "092940.812000", "092940.812000", "092940.812000", "092940.812000", "092940.812000", "092940.812000", "092940.828000", "092940.828000", "092940.828000", "092940.828000", "092940.843000", "092940.843000", "092940.843000", "092940.843000", "092940.859000", "092940.859000", "093000.796000", "093000.796000", "093000.796000", "093000.796000", "093000.812000", "093000.812000", "093000.812000", "093000.812000", "093000.812000", "093000.812000", "093000.812000", "093000.828000", "093000.828000", "093000.828000", "093000.828000", "093000.828000", "093000.828000", "093000.843000", "093000.843000", "093000.843000", "093020.796000", "093020.796000", "093020.796000", "093020.796000", "093020.796000", "093020.796000", "093020.812000", "093020.812000", "093020.812000", "093020.812000", "093020.812000", "093020.812000", "093020.812000", "093020.812000", "093020.828000", "093020.828000", "093020.828000", "093020.828000", "093020.828000", "093020.828000", "093040.796000", "093040.796000", "093040.796000", "093040.796000", "093040.812000", "093040.812000", "093040.812000", "093040.812000", "093040.812000", "093040.812000", "093040.812000", "093040.828000", "093040.828000", "093040.828000", "093040.828000", "093040.828000", "093040.828000", "093040.828000", "093040.828000", "093040.843000", "093100.796000", "093100.796000", "093100.796000", "093100.796000", "093100.796000", "093100.796000", "093100.812000", "093100.812000", "093100.812000", "093100.812000", "093100.812000", "093100.812000", "093100.812000", "093100.828000", "093100.828000", "093100.828000", "093100.828000", "093100.828000", "093100.828000", "093100.828000", "093120.796000", "093120.796000", "093120.796000", "093120.796000", "093120.796000", "093120.796000", "093120.812000", "093120.812000", "093120.812000", "093120.812000", "093120.812000", "093120.812000", "093120.812000", "093120.812000", "093120.828000", "093120.828000", "093120.828000", "093120.828000", "093120.828000", "093120.828000", "093140.796000", "093140.796000", "093140.796000", "093140.796000", "093140.796000", "093140.812000", "093140.812000", "093140.812000", "093140.812000", "093140.812000", "093140.812000", "093140.828000", "093140.828000", "093140.828000", "093140.828000", "093140.828000", "093140.828000", "093140.828000", "093140.828000", "093140.843000", "093200.796000", "093200.796000", "093200.796000", "093200.796000", "093200.796000", "093200.812000", "093200.812000", "093200.812000", "093200.812000", "093200.812000", "093200.812000", "093200.812000", "093200.828000", "093200.828000", "093200.828000", "093200.828000", "093200.828000", "093200.843000", "093200.843000", "093200.843000", "093222.375000", "093222.375000", "093222.375000", "093222.375000", "093222.375000", "093222.375000", "093222.390000", "093222.390000", "093222.390000", "093222.390000", "093222.390000", "093222.390000", "093222.390000", "093222.406000", "093222.406000", "093222.406000", "093222.406000"],
      "InstanceNumber": [1, 2, 3, 4, 5, 6, 7, 8, 9, 10, 11, 12, 13, 14, 15, 16, 17, 18, 19, 20, 21, 22, 23, 24, 25, 26, 27, 28, 29, 30, 31, 32, 33, 34, 35, 36, 37, 38, 39, 40, 41, 42, 43, 44, 45, 46, 47, 48, 49, 50, 51, 52, 53, 54, 55, 56, 57, 58, 59, 60, 61, 62, 63, 64, 65, 66, 67, 68, 69, 70, 71, 72, 73, 74, 75, 76, 77, 78, 79, 80, 81, 82, 83, 84, 85, 86, 87, 88, 89, 90, 91, 92, 93, 94, 95, 96, 97, 98, 99, 100, 101, 102, 103, 104, 105, 106, 107, 108, 109, 110, 111, 112, 113, 114, 115, 116, 117, 118, 119, 120, 121, 122, 123, 124, 125, 126, 127, 128, 129, 130, 131, 132, 133, 134, 135, 136, 137, 138, 139, 140, 141, 142, 143, 144, 145, 146, 147, 148, 149, 150, 151, 152, 153, 154, 155, 156, 157, 158, 159, 160, 161, 162, 163, 164, 165, 166, 167, 168, 169, 170, 171, 172, 173, 174, 175, 176, 177, 178, 179, 180, 181, 182, 183, 184, 185, 186, 187, 188, 189, 190, 191, 192, 193, 194, 195, 196, 197, 198, 199, 200, 201, 202, 203, 204, 205, 206, 207, 208, 209, 210, 211, 212, 213, 214, 215, 216, 217, 218, 219, 220, 221, 222, 223, 224, 225, 226, 227, 228, 229, 230, 231, 232, 233, 234, 235, 236, 237, 238, 239, 240, 241, 242, 243, 244, 245, 246, 247, 248, 249, 250, 251, 252, 253, 254, 255, 256, 257, 258, 259, 260, 261, 262, 263, 264, 265, 266, 267, 268, 269, 270, 271, 272, 273, 274, 275, 276, 277, 278, 279, 280, 281, 282, 283, 284, 285, 286, 287, 288, 289, 290, 291, 292, 293, 294, 295, 296, 297, 298, 299, 300, 301, 302, 303, 304, 305, 306, 307, 308, 309, 310, 311, 312, 313, 314, 315, 316, 317, 318, 319, 320, 321, 322, 323, 324, 325, 326, 327, 328, 329, 330],
      "LargestImagePixelValue": [2684, 2726, 2703, 2669, 2717, 2639, 2647, 2612, 2688, 2644, 2649, 2647, 2630, 2682, 2642, 2612, 2593, 2628, 2622, 2635, 2595, 2590, 2595, 2635, 2631, 2640, 2706, 2619, 2651, 2579, 2595, 2615, 2647, 2620, 2587, 2636, 2609, 2608, 2591, 2608, 2612, 2654, 2617, 2609, 2637, 2638, 2596, 2663, 2615, 2623, 2609, 2644, 2621, 2619, 2625, 2624, 2578, 2637, 2612, 2642, 2600, 2602, 2633, 2651, 2652, 2619, 2595, 2608, 2669, 2665, 2605, 2604, 2595, 2609, 2620, 2615, 2590, 2593, 2638, 2660, 2656, 2627, 2616, 2650, 2672, 2650, 2579, 2583, 2624, 2589, 2608, 2577, 2605, 2612, 2618, 2660, 2658, 2631, 2647, 2671, 2653, 2638, 2615, 2625, 2592, 2645, 2656, 2651, 2653, 2646, 2654, 2623, 2631, 2622, 2569, 2663, 2627, 2581, 2616, 2608, 2620, 2635, 2620, 2635, 2614, 2649, 2671, 2594, 2607, 2610, 2677, 2648, 2620, 2615, 2627, 2604, 2628, 2627, 2596, 2616, 2624, 2590, 2581, 2581, 2594, 2580, 2662, 2587, 2627, 2630, 2609, 2646, 2687, 2623, 2649, 2642, 2655, 2652, 2649, 2622, 2589, 2622, 2668, 2626, 2608, 2595, 2578, 2673, 2683, 2669, 2736, 2708, 2679, 2681, 2713, 2728, 2641, 2658, 2668, 2706, 2675, 2684, 2619, 2592, 2647, 2612, 2640, 2669, 2598, 2550, 2609, 2633, 2645, 2610, 2592, 2631, 2590, 2616, 2587, 2615, 2642, 2592, 2587, 2607, 2663, 2618, 2653, 2622, 2749, 2648, 2605, 2620, 2655, 2626, 2589, 2609, 2602, 2606, 2620, 2616, 2638, 2614, 2598, 2598, 2669, 2687, 2650, 2625, 2635, 2631, 2598, 2667, 2621, 2581, 2612, 2586, 2624, 2611, 2600, 2636, 2610, 2631, 2647, 2695, 2664, 2628, 2618, 2659, 2583, 2607, 2661, 2581, 2626, 2638, 2599, 2627, 2634, 2657, 2593, 2628, 2620, 2614, 2641, 2600, 2586, 2657, 2594, 2582, 2576, 2613, 2637, 2640, 2633, 2718, 2637, 2614, 2640, 2634, 2640, 2664, 2621, 2681, 2662, 2665, 2647, 2668, 2598, 2675, 2677, 2666, 2645, 2686, 2666, 2712, 2674, 2624, 2633, 2712, 2667, 2612, 2636, 2681, 2605, 2640, 2666, 2605, 2615, 2657, 2671, 2617, 2592, 2668, 2651, 2728, 2704, 2631, 2645, 2757, 2665, 2617, 2626, 2673, 2639, 2608, 2660, 2600, 2613, 2636, 2642, 2644],
      "WindowCenter": [461.0, 460.0, 460.0, 460.0, 460.0, 459.0, 459.0, 457.0, 457.0, 457.0, 458.0, 457.0, 457.0, 456.0, 456.0, 456.0, 456.0, 457.0, 458.0, 459.0, 458.0, 457.0, 456.0, 456.0, 455.0, 455.0, 456.0, 456.0, 457.0, 458.0, 458.0, 458.0, 458.0, 458.0, 458.0, 458.0, 458.0, 458.0, 457.0, 457.0, 457.0, 459.0, 459.0, 459.0, 459.0, 458.0, 456.0, 456.0, 456.0, 456.0, 457.0, 458.0, 457.0, 457.0, 457.0, 458.0, 458.0, 459.0, 459.0, 459.0, 458.0, 457.0, 456.0, 456.0, 456.0, 458.0, 460.0, 461.0, 460.0, 458.0, 456.0, 454.0, 453.0, 454.0, 456.0, 458.0, 459.0, 459.0, 458.0, 458.0, 457.0, 456.0, 457.0, 458.0, 458.0, 458.0, 459.0, 459.0, 459.0, 458.0, 457.0, 456.0, 456.0, 457.0, 457.0, 458.0, 459.0, 459.0, 458.0, 456.0, 455.0, 454.0, 454.0, 456.0, 458.0, 460.0, 460.0, 459.0, 458.0, 457.0, 456.0, 456.0, 457.0, 458.0, 458.0, 459.0, 457.0, 456.0, 456.0, 457.0, 457.0, 459.0, 459.0, 459.0, 459.0, 458.0, 457.0, 456.0, 456.0, 458.0, 460.0, 461.0, 462.0, 461.0, 458.0, 457.0, 456.0, 456.0, 455.0, 456.0, 456.0, 457.0, 458.0, 458.0, 458.0, 457.0, 457.0, 457.0, 458.0, 458.0, 459.0, 457.0, 458.0, 457.0, 457.0, 458.0, 459.0, 459.0, 459.0, 458.0, 457.0, 457.0, 457.0, 457.0, 456.0, 456.0, 457.0, 457.0, 457.0, 457.0, 457.0, 458.0, 458.0, 459.0, 460.0, 460.0, 458.0, 457.0, 456.0, 456.0, 456.0, 457.0, 457.0, 458.0, 459.0, 459.0, 459.0, 458.0, 457.0, 458.0, 459.0, 461.0, 460.0, 459.0, 457.0, 457.0, 456.0, 456.0, 456.0, 458.0, 459.0, 460.0, 461.0, 460.0, 459.0, 457.0, 456.0, 456.0, 458.0, 458.0, 460.0, 462.0, 462.0, 458.0, 456.0, 456.0, 457.0, 457.0, 457.0, 456.0, 455.0, 455.0, 454.0, 454.0, 456.0, 457.0, 458.0, 458.0, 459.0, 458.0, 457.0, 457.0, 457.0, 457.0, 459.0, 459.0, 459.0, 459.0, 457.0, 457.0, 456.0, 458.0, 459.0, 460.0, 461.0, 462.0, 461.0, 459.0, 456.0, 456.0, 456.0, 456.0, 459.0, 461.0, 460.0, 459.0, 458.0, 457.0, 456.0, 456.0, 456.0, 458.0, 459.0, 461.0, 461.0, 461.0, 460.0, 458.0, 457.0, 457.0, 456.0, 457.0, 460.0, 461.0, 461.0, 460.0, 459.0, 458.0, 458.0, 458.0, 459.0, 460.0, 460.0, 459.0, 459.0, 459.0, 458.0, 458.0, 459.0, 459.0, 459.0, 459.0, 458.0, 458.0, 457.0, 456.0, 457.0, 458.0, 459.0, 460.0, 460.0, 459.0, 458.0, 457.0, 457.0, 457.0, 457.0, 456.0, 456.0, 457.0, 457.0, 459.0, 460.0, 461.0, 460.0, 460.0, 458.0, 458.0, 458.0, 460.0, 460.0, 461.0, 460.0, 458.0, 457.0, 456.0, 457.0, 458.0, 459.0, 459.0],
