{
  "AcquisitionMatrixPE": 104,
  "AcquisitionNumber": 1,
  "AcquisitionTime": "12:18:26.800000",
  "BandwidthPerPixelPhaseEncode": 43.054,
  "BaseResolution": 104,
  "CoilString": "C:E1_2",
  "ConversionSoftware": "dcm2niix",
  "ConversionSoftwareVersion": "v1.0.20191031",
  "DerivedVendorReportedEchoSpacing": 0.000669999,
  "DeviceSerialNumber": "18932",
  "DwellTime": 2.8e-06,
  "EchoTime": 0.02,
  "EffectiveEchoSpacing": 0.000223333,
  "FlipAngle": 30,
  "ImageComments": "Unaliased_MB2_PE2",
  "ImageOrientationPatientDICOM": [1, 0, 0, 0, 0.981627, -0.190809],
  "ImageType": [
    "ORIGINAL",
    "PRIMARY",
    "M",
    "MB",
    "ND",
    "MOSAIC"
],
  "ImagingFrequency": 297.229,
  "InPlanePhaseEncodingDirectionDICOM": "COL",
  "InstitutionAddress": "Richmond_Street_North_1151_London_409EF2_Ontario_CA_N6A_5B7",
  "InstitutionName": "Robarts_Reserch_Institute",
  "InstitutionalDepartmentName": "Department",
  "MRAcquisitionType": "2D",
  "MagneticFieldStrength": 6.98,
  "Manufacturer": "Siemens",
  "ManufacturersModelName": "Investigational_Device_7T",
  "Modality": "MR",
  "MultibandAccelerationFactor": 2,
  "ParallelReductionFactorInPlane": 3,
  "PartialFourier": 0.875,
  "PatientPosition": "HFS",
  "PercentPhaseFOV": 100,
  "PhaseEncodingDirection": "j-",
  "PhaseEncodingSteps": 91,
  "PhaseResolution": 1,
  "PixelBandwidth": 1717,
  "ProcedureStepDescription": "Diedrichsen_SeqRep4",
  "ProtocolName": "mbep2d_bold_mb2_p3_AP_2iso",
  "PulseSequenceDetails": "%CustomerSeq%_cmrr_mbep2d_bold",
  "ReceiveCoilName": "CFMM_8Tx32Rx",
  "ReconMatrixPE": 104,
  "RefLinesPE": 36,
  "RepetitionTime": 1,
  "ScanOptions": "PFP_FS",
  "ScanningSequence": "EP",
  "SequenceName": "epfid2d1_104",
  "SequenceVariant": "SK_SS",
  "SeriesDescription": "mbep2d_bold_mb2_p3_AP_2iso",
  "SeriesNumber": 28,
  "ShimSetting": [25, 2065, 4, 1582, -21, -142, 282, -97],
  "SliceThickness": 2,
  "SliceTiming": [0, 0.2275, 0.455, 0.6825, 0.9125, 0.135, 0.365, 0.5925, 0.82, 0.045, 0.2725, 0.5, 0.73, 0.9575, 0.1825, 0.41, 0.6375, 0.865, 0.09, 0.3175, 0.5475, 0.775, 0, 0.2275, 0.455, 0.6825, 0.9125, 0.135, 0.365, 0.5925, 0.82, 0.045, 0.2725, 0.5, 0.73, 0.9575, 0.1825, 0.41, 0.6375, 0.865, 0.09, 0.3175, 0.5475, 0.775],
  "SoftwareVersions": "syngo_MR_B17",
  "SpacingBetweenSlices": 2,
  "StationName": "MASTER",
  "TaskName": "dsp",
  "TotalReadoutTime": 0.0230033,
  "TxRefAmp": 120,
  "dcmmeta_affine": [
    [-2.0, 0.0, 0.0, 105.4527816772461],
    [0.0, 1.9632543325424194, -0.3816179633140564, -114.44151306152344],
    [0.0, 0.3816179633140564, 1.9632543325424194, -53.73161315917969],
    [0.0, 0.0, 0.0, 1.0]
],
  "dcmmeta_reorient_transform": [
    [0.0, -1.0, 0.0, 103.0],
    [1.0, 0.0, 0.0, 0.0],
    [0.0, 0.0, 1.0, 0.0],
    [0.0, 0.0, 0.0, 1.0]
],
  "dcmmeta_shape": [104, 104, 44, 330],
  "dcmmeta_slice_dim": 2,
  "dcmmeta_version": 0.6,
  "global": {
    "const": {
      "AcquisitionMatrix": [104, 0, 0, 104],
      "AngioFlag": "N",
      "BitsAllocated": 16,
      "BitsStored": 12,
      "Columns": 728,
      "EchoNumbers": 1,
      "EchoTime": 20.0,
      "EchoTrainLength": 1,
      "FlipAngle": 30.0,
      "HighBit": 11,
      "ImageOrientationPatient": [1.0, 0.0, 0.0, 0.0, 0.98162718523795, -0.1908089861663],
      "ImagePositionPatient": [-729.45278453827, -700.30904958583, 104.63984555457],
      "ImageType": [
        "ORIGINAL",
        "PRIMARY",
        "M",
        "MB",
        "ND",
        "MOSAIC"
],
      "ImagedNucleus": "1H",
      "ImagingFrequency": 297.228795,
      "InPlanePhaseEncodingDirection": "COL",
      "MRAcquisitionType": "2D",
      "MagneticFieldStrength": 6.98,
      "Manufacturer": "SIEMENS",
      "ManufacturerModelName": "Investigational_Device_7T",
      "Modality": "MR",
      "NumberOfAverages": 1.0,
      "NumberOfPhaseEncodingSteps": 91,
      "PercentPhaseFieldOfView": 100.0,
      "PercentSampling": 100.0,
      "PerformedProcedureStepStartTime": "110711.390000",
      "PhotometricInterpretation": "MONOCHROME2",
      "PixelBandwidth": 1717.0,
      "PixelRepresentation": 0,
      "PixelSpacing": [2.0, 2.0],
      "ProtocolName": "mbep2d_bold_mb2_p3_AP 2iso",
      "RepetitionTime": 1000.0,
      "Rows": 728,
      "SAR": 0.0,
      "SamplesPerPixel": 1,
      "ScanOptions": [
        "PFP",
        "FS"
],
      "ScanningSequence": "EP",
      "SequenceName": "epfid2d1_104",
      "SequenceVariant": [
        "SK",
        "SS"
],
      "SeriesDescription": "mbep2d_bold_mb2_p3_AP 2iso",
      "SeriesNumber": 28,
      "SeriesTime": "121900.609000",
      "SliceLocation": -30.907942699106,
      "SliceThickness": 2.0,
      "SmallestImagePixelValue": 0,
      "SoftwareVersions": "syngo MR B17",
      "SpacingBetweenSlices": 1.9999999851176,
      "SpecificCharacterSet": "ISO_IR 100",
      "StudyID": "1",
      "StudyTime": "110711.328000",
      "TransmitCoilName": "CFMM_8Tx32Rx",
      "VariableFlipAngleFlag": "N",
      "WindowCenterWidthExplanation": "Algo1",
      "dBdt": 0.0},
    "slices": {}
  },
  "time": {
    "samples": {
      "AcquisitionNumber": [1, 2, 3, 4, 5, 6, 7, 8, 9, 10, 11, 12, 13, 14, 15, 16, 17, 18, 19, 20, 21, 22, 23, 24, 25, 26, 27, 28, 29, 30, 31, 32, 33, 34, 35, 36, 37, 38, 39, 40, 41, 42, 43, 44, 45, 46, 47, 48, 49, 50, 51, 52, 53, 54, 55, 56, 57, 58, 59, 60, 61, 62, 63, 64, 65, 66, 67, 68, 69, 70, 71, 72, 73, 74, 75, 76, 77, 78, 79, 80, 81, 82, 83, 84, 85, 86, 87, 88, 89, 90, 91, 92, 93, 94, 95, 96, 97, 98, 99, 100, 101, 102, 103, 104, 105, 106, 107, 108, 109, 110, 111, 112, 113, 114, 115, 116, 117, 118, 119, 120, 121, 122, 123, 124, 125, 126, 127, 128, 129, 130, 131, 132, 133, 134, 135, 136, 137, 138, 139, 140, 141, 142, 143, 144, 145, 146, 147, 148, 149, 150, 151, 152, 153, 154, 155, 156, 157, 158, 159, 160, 161, 162, 163, 164, 165, 166, 167, 168, 169, 170, 171, 172, 173, 174, 175, 176, 177, 178, 179, 180, 181, 182, 183, 184, 185, 186, 187, 188, 189, 190, 191, 192, 193, 194, 195, 196, 197, 198, 199, 200, 201, 202, 203, 204, 205, 206, 207, 208, 209, 210, 211, 212, 213, 214, 215, 216, 217, 218, 219, 220, 221, 222, 223, 224, 225, 226, 227, 228, 229, 230, 231, 232, 233, 234, 235, 236, 237, 238, 239, 240, 241, 242, 243, 244, 245, 246, 247, 248, 249, 250, 251, 252, 253, 254, 255, 256, 257, 258, 259, 260, 261, 262, 263, 264, 265, 266, 267, 268, 269, 270, 271, 272, 273, 274, 275, 276, 277, 278, 279, 280, 281, 282, 283, 284, 285, 286, 287, 288, 289, 290, 291, 292, 293, 294, 295, 296, 297, 298, 299, 300, 301, 302, 303, 304, 305, 306, 307, 308, 309, 310, 311, 312, 313, 314, 315, 316, 317, 318, 319, 320, 321, 322, 323, 324, 325, 326, 327, 328, 329, 330],
      "AcquisitionTime": ["121826.800000", "121827.802500", "121828.807500", "121829.810000", "121830.815000", "121831.820000", "121832.822500", "121833.827500", "121834.830000", "121835.835000", "121836.840000", "121837.842500", "121838.847500", "121839.852500", "121840.855000", "121841.860000", "121842.862500", "121843.867500", "121844.872500", "121845.875000", "121846.880000", "121847.882500", "121848.887500", "121849.892500", "121850.895000", "121851.900000", "121852.902500", "121853.907500", "121854.912500", "121855.915000", "121856.920000", "121857.922500", "121858.927500", "121859.932500", "121900.935000", "121901.940000", "121902.942500", "121903.947500", "121904.952500", "121905.955000", "121906.960000", "121907.965000", "121908.967500", "121909.972500", "121910.975000", "121911.980000", "121912.985000", "121913.987500", "121914.992500", "121915.995000", "121917.000000", "121918.005000", "121919.007500", "121920.012500", "121921.015000", "121922.020000", "121923.025000", "121924.027500", "121925.032500", "121926.035000", "121927.040000", "121928.045000", "121929.047500", "121930.052500", "121931.055000", "121932.060000", "121933.065000", "121934.067500", "121935.072500", "121936.075000", "121937.080000", "121938.085000", "121939.087500", "121940.092500", "121941.097500", "121942.100000", "121943.105000", "121944.107500", "121945.112500", "121946.117500", "121947.120000", "121948.125000", "121949.127500", "121950.132500", "121951.137500", "121952.140000", "121953.145000", "121954.147500", "121955.152500", "121956.157500", "121957.160000", "121958.165000", "121959.167500", "122000.172500", "122001.177500", "122002.180000", "122003.185000", "122004.187500", "122005.192500", "122006.197500", "122007.200000", "122008.205000", "122009.207500", "122010.212500", "122011.217500", "122012.220000", "122013.225000", "122014.230000", "122015.232500", "122016.237500", "122017.240000", "122018.245000", "122019.250000", "122020.252500", "122021.257500", "122022.260000", "122023.265000", "122024.270000", "122025.272500", "122026.277500", "122027.280000", "122028.285000", "122029.290000", "122030.292500", "122031.297500", "122032.300000", "122033.305000", "122034.310000", "122035.312500", "122036.317500", "122037.320000", "122038.325000", "122039.330000", "122040.332500", "122041.337500", "122042.342500", "122043.345000", "122044.350000", "122045.352500", "122046.357500", "122047.362500", "122048.365000", "122049.370000", "122050.372500", "122051.377500", "122052.382500", "122053.385000", "122054.390000", "122055.392500", "122056.397500", "122057.402500", "122058.405000", "122059.410000", "122100.412500", "122101.417500", "122102.422500", "122103.425000", "122104.430000", "122105.432500", "122106.437500", "122107.442500", "122108.445000", "122109.450000", "122110.452500", "122111.457500", "122112.462500", "122113.465000", "122114.470000", "122115.475000", "122116.477500", "122117.482500", "122118.485000", "122119.490000", "122120.495000", "122121.497500", "122122.502500", "122123.505000", "122124.510000", "122125.515000", "122126.517500", "122127.522500", "122128.525000", "122129.530000", "122130.535000", "122131.537500", "122132.542500", "122133.545000", "122134.550000", "122135.555000", "122136.557500", "122137.562500", "122138.565000", "122139.570000", "122140.575000", "122141.577500", "122142.582500", "122143.585000", "122144.590000", "122145.595000", "122146.597500", "122147.602500", "122148.607500", "122149.610000", "122150.615000", "122151.617500", "122152.622500", "122153.627500", "122154.630000", "122155.635000", "122156.637500", "122157.642500", "122158.647500", "122159.650000", "122200.655000", "122201.657500", "122202.662500", "122203.667500", "122204.670000", "122205.675000", "122206.677500", "122207.682500", "122208.687500", "122209.690000", "122210.695000", "122211.697500", "122212.702500", "122213.707500", "122214.710000", "122215.715000", "122216.720000", "122217.722500", "122218.727500", "122219.730000", "122220.735000", "122221.740000", "122222.742500", "122223.747500", "122224.750000", "122225.755000", "122226.760000", "122227.762500", "122228.767500", "122229.770000", "122230.775000", "122231.780000", "122232.782500", "122233.787500", "122234.790000", "122235.795000", "122236.800000", "122237.802500", "122238.807500", "122239.810000", "122240.815000", "122241.820000", "122242.822500", "122243.827500", "122244.830000", "122245.835000", "122246.840000", "122247.842500", "122248.847500", "122249.852500", "122250.855000", "122251.860000", "122252.862500", "122253.867500", "122254.872500", "122255.875000", "122256.880000", "122257.882500", "122258.887500", "122259.892500", "122300.895000", "122301.900000", "122302.902500", "122303.907500", "122304.912500", "122305.915000", "122306.920000", "122307.922500", "122308.927500", "122309.932500", "122310.935000", "122311.940000", "122312.942500", "122313.947500", "122314.952500", "122315.955000", "122316.960000", "122317.965000", "122318.967500", "122319.972500", "122320.975000", "122321.980000", "122322.985000", "122323.987500", "122324.992500", "122325.995000", "122327.000000", "122328.005000", "122329.007500", "122330.012500", "122331.015000", "122332.020000", "122333.025000", "122334.027500", "122335.032500", "122336.035000", "122337.040000", "122338.045000", "122339.047500", "122340.052500", "122341.055000", "122342.060000", "122343.065000", "122344.067500", "122345.072500", "122346.075000", "122347.080000", "122348.085000", "122349.087500", "122350.092500", "122351.097500", "122352.100000", "122353.105000", "122354.107500", "122355.112500", "122356.117500", "122357.120000"],
      "ContentTime": ["121900.609000", "121900.609000", "121900.609000", "121900.609000", "121900.609000", "121900.609000", "121900.625000", "121900.625000", "121900.625000", "121900.625000", "121900.625000", "121900.625000", "121900.625000", "121900.640000", "121900.640000", "121900.640000", "121900.640000", "121900.640000", "121900.656000", "121900.656000", "121900.656000", "121900.656000", "121900.656000", "121900.656000", "121900.671000", "121900.671000", "121900.671000", "121900.671000", "121900.671000", "121900.671000", "121900.671000", "121900.687000", "121920.546000", "121920.562000", "121920.562000", "121920.562000", "121920.562000", "121920.562000", "121920.562000", "121920.562000", "121920.578000", "121920.578000", "121920.578000", "121920.578000", "121920.578000", "121920.593000", "121920.593000", "121920.593000", "121920.593000", "121920.593000", "121920.593000", "121920.593000", "121940.546000", "121940.562000", "121940.562000", "121940.578000", "121940.578000", "121940.578000", "121940.578000", "121940.578000", "121940.578000", "121940.578000", "121940.578000", "121940.593000", "121940.593000", "121940.593000", "121940.593000", "121940.593000", "121940.593000", "121940.593000", "121940.609000", "121940.609000", "122000.546000", "122000.562000", "122000.562000", "122000.562000", "122000.562000", "122000.562000", "122000.562000", "122000.562000", "122000.578000", "122000.578000", "122000.578000", "122000.578000", "122000.578000", "122000.578000", "122000.578000", "122000.593000", "122000.593000", "122000.593000", "122000.593000", "122000.593000", "122020.546000", "122020.562000", "122020.562000", "122020.562000", "122020.562000", "122020.562000", "122020.562000", "122020.562000", "122020.578000", "122020.578000", "122020.578000", "122020.578000", "122020.578000", "122020.593000", "122020.593000", "122020.593000", "122020.593000", "122020.593000", "122020.593000", "122020.593000", "122040.546000", "122040.562000", "122040.562000", "122040.562000", "122040.562000", "122040.562000", "122040.562000", "122040.562000", "122040.578000", "122040.578000", "122040.578000", "122040.578000", "122040.578000", "122040.578000", "122040.578000", "122040.593000", "122040.593000", "122040.593000", "122040.593000", "122040.593000", "122100.546000", "122100.562000", "122100.562000", "122100.562000", "122100.562000", "122100.562000", "122100.578000", "122100.578000", "122100.578000", "122100.578000", "122100.578000", "122100.578000", "122100.578000", "122100.593000", "122100.593000", "122100.593000", "122100.593000", "122100.593000", "122100.593000", "122100.593000", "122120.546000", "122120.562000", "122120.562000", "122120.562000", "122120.562000", "122120.562000", "122120.562000", "122120.562000", "122120.578000", "122120.578000", "122120.578000", "122120.578000", "122120.578000", "122120.578000", "122120.578000", "122120.578000", "122120.593000", "122120.593000", "122120.593000", "122120.593000", "122140.546000", "122140.562000", "122140.562000", "122140.562000", "122140.562000", "122140.562000", "122140.562000", "122140.562000", "122140.578000", "122140.578000", "122140.578000", "122140.578000", "122140.578000", "122140.578000", "122140.578000", "122140.593000", "122140.593000", "122140.593000", "122140.593000", "122140.593000", "122200.546000", "122200.562000", "122200.562000", "122200.562000", "122200.562000", "122200.578000", "122200.578000", "122200.578000", "122200.578000", "122200.578000", "122200.578000", "122200.578000", "122200.578000", "122200.593000", "122200.593000", "122200.593000", "122200.593000", "122200.609000", "122200.609000", "122200.609000", "122220.546000", "122220.562000", "122220.562000", "122220.562000", "122220.578000", "122220.578000", "122220.578000", "122220.578000", "122220.578000", "122220.578000", "122220.578000", "122220.578000", "122220.593000", "122220.593000", "122220.593000", "122220.593000", "122220.593000", "122220.593000", "122220.593000", "122220.609000", "122240.546000", "122240.562000", "122240.562000", "122240.562000", "122240.562000", "122240.562000", "122240.562000", "122240.562000", "122240.578000", "122240.578000", "122240.578000", "122240.578000", "122240.578000", "122240.578000", "122240.593000", "122240.593000", "122240.593000", "122240.593000", "122240.593000", "122240.609000", "122300.562000", "122300.562000", "122300.562000", "122300.562000", "122300.562000", "122300.562000", "122300.578000", "122300.578000", "122300.578000", "122300.578000", "122300.578000", "122300.578000", "122300.578000", "122300.593000", "122300.593000", "122300.593000", "122300.593000", "122300.593000", "122300.593000", "122300.593000", "122320.546000", "122320.562000", "122320.562000", "122320.562000", "122320.562000", "122320.562000", "122320.562000", "122320.562000", "122320.578000", "122320.578000", "122320.578000", "122320.578000", "122320.593000", "122320.593000", "122320.593000", "122320.593000", "122320.593000", "122320.593000", "122320.609000", "122320.609000", "122340.546000", "122340.562000", "122340.562000", "122340.562000", "122340.562000", "122340.562000", "122340.562000", "122340.562000", "122340.578000", "122340.578000", "122340.578000", "122340.578000", "122340.578000", "122340.578000", "122340.593000", "122340.593000", "122340.593000", "122340.593000", "122340.593000", "122340.593000", "122403.156000", "122403.156000", "122403.156000", "122403.156000", "122403.171000", "122403.171000", "122403.171000", "122403.171000", "122403.171000", "122403.187000", "122403.187000", "122403.187000", "122403.187000", "122403.187000", "122403.203000", "122403.203000", "122403.203000", "122403.218000"],
      "InstanceCreationTime": ["121900.609000", "121900.609000", "121900.609000", "121900.609000", "121900.609000", "121900.609000", "121900.625000", "121900.625000", "121900.625000", "121900.625000", "121900.625000", "121900.625000", "121900.625000", "121900.640000", "121900.640000", "121900.640000", "121900.640000", "121900.640000", "121900.656000", "121900.656000", "121900.656000", "121900.656000", "121900.656000", "121900.656000", "121900.671000", "121900.671000", "121900.671000", "121900.671000", "121900.671000", "121900.671000", "121900.671000", "121900.687000", "121920.546000", "121920.562000", "121920.562000", "121920.562000", "121920.562000", "121920.562000", "121920.562000", "121920.562000", "121920.578000", "121920.578000", "121920.578000", "121920.578000", "121920.578000", "121920.593000", "121920.593000", "121920.593000", "121920.593000", "121920.593000", "121920.593000", "121920.593000", "121940.546000", "121940.562000", "121940.562000", "121940.578000", "121940.578000", "121940.578000", "121940.578000", "121940.578000", "121940.578000", "121940.578000", "121940.578000", "121940.593000", "121940.593000", "121940.593000", "121940.593000", "121940.593000", "121940.593000", "121940.593000", "121940.609000", "121940.609000", "122000.546000", "122000.562000", "122000.562000", "122000.562000", "122000.562000", "122000.562000", "122000.562000", "122000.562000", "122000.578000", "122000.578000", "122000.578000", "122000.578000", "122000.578000", "122000.578000", "122000.578000", "122000.593000", "122000.593000", "122000.593000", "122000.593000", "122000.593000", "122020.546000", "122020.562000", "122020.562000", "122020.562000", "122020.562000", "122020.562000", "122020.562000", "122020.562000", "122020.578000", "122020.578000", "122020.578000", "122020.578000", "122020.578000", "122020.593000", "122020.593000", "122020.593000", "122020.593000", "122020.593000", "122020.593000", "122020.593000", "122040.546000", "122040.562000", "122040.562000", "122040.562000", "122040.562000", "122040.562000", "122040.562000", "122040.562000", "122040.578000", "122040.578000", "122040.578000", "122040.578000", "122040.578000", "122040.578000", "122040.578000", "122040.593000", "122040.593000", "122040.593000", "122040.593000", "122040.593000", "122100.546000", "122100.562000", "122100.562000", "122100.562000", "122100.562000", "122100.562000", "122100.578000", "122100.578000", "122100.578000", "122100.578000", "122100.578000", "122100.578000", "122100.578000", "122100.593000", "122100.593000", "122100.593000", "122100.593000", "122100.593000", "122100.593000", "122100.593000", "122120.546000", "122120.562000", "122120.562000", "122120.562000", "122120.562000", "122120.562000", "122120.562000", "122120.562000", "122120.578000", "122120.578000", "122120.578000", "122120.578000", "122120.578000", "122120.578000", "122120.578000", "122120.578000", "122120.593000", "122120.593000", "122120.593000", "122120.593000", "122140.546000", "122140.562000", "122140.562000", "122140.562000", "122140.562000", "122140.562000", "122140.562000", "122140.562000", "122140.578000", "122140.578000", "122140.578000", "122140.578000", "122140.578000", "122140.578000", "122140.578000", "122140.593000", "122140.593000", "122140.593000", "122140.593000", "122140.593000", "122200.546000", "122200.562000", "122200.562000", "122200.562000", "122200.562000", "122200.578000", "122200.578000", "122200.578000", "122200.578000", "122200.578000", "122200.578000", "122200.578000", "122200.578000", "122200.593000", "122200.593000", "122200.593000", "122200.593000", "122200.609000", "122200.609000", "122200.609000", "122220.546000", "122220.562000", "122220.562000", "122220.562000", "122220.578000", "122220.578000", "122220.578000", "122220.578000", "122220.578000", "122220.578000", "122220.578000", "122220.578000", "122220.593000", "122220.593000", "122220.593000", "122220.593000", "122220.593000", "122220.593000", "122220.593000", "122220.609000", "122240.546000", "122240.562000", "122240.562000", "122240.562000", "122240.562000", "122240.562000", "122240.562000", "122240.562000", "122240.578000", "122240.578000", "122240.578000", "122240.578000", "122240.578000", "122240.578000", "122240.593000", "122240.593000", "122240.593000", "122240.593000", "122240.593000", "122240.609000", "122300.562000", "122300.562000", "122300.562000", "122300.562000", "122300.562000", "122300.562000", "122300.578000", "122300.578000", "122300.578000", "122300.578000", "122300.578000", "122300.578000", "122300.578000", "122300.593000", "122300.593000", "122300.593000", "122300.593000", "122300.593000", "122300.593000", "122300.593000", "122320.546000", "122320.562000", "122320.562000", "122320.562000", "122320.562000", "122320.562000", "122320.562000", "122320.562000", "122320.578000", "122320.578000", "122320.578000", "122320.578000", "122320.593000", "122320.593000", "122320.593000", "122320.593000", "122320.593000", "122320.593000", "122320.609000", "122320.609000", "122340.546000", "122340.562000", "122340.562000", "122340.562000", "122340.562000", "122340.562000", "122340.562000", "122340.562000", "122340.578000", "122340.578000", "122340.578000", "122340.578000", "122340.578000", "122340.578000", "122340.593000", "122340.593000", "122340.593000", "122340.593000", "122340.593000", "122340.593000", "122403.156000", "122403.156000", "122403.156000", "122403.156000", "122403.171000", "122403.171000", "122403.171000", "122403.171000", "122403.171000", "122403.187000", "122403.187000", "122403.187000", "122403.187000", "122403.187000", "122403.203000", "122403.203000", "122403.203000", "122403.218000"],
      "InstanceNumber": [1, 2, 3, 4, 5, 6, 7, 8, 9, 10, 11, 12, 13, 14, 15, 16, 17, 18, 19, 20, 21, 22, 23, 24, 25, 26, 27, 28, 29, 30, 31, 32, 33, 34, 35, 36, 37, 38, 39, 40, 41, 42, 43, 44, 45, 46, 47, 48, 49, 50, 51, 52, 53, 54, 55, 56, 57, 58, 59, 60, 61, 62, 63, 64, 65, 66, 67, 68, 69, 70, 71, 72, 73, 74, 75, 76, 77, 78, 79, 80, 81, 82, 83, 84, 85, 86, 87, 88, 89, 90, 91, 92, 93, 94, 95, 96, 97, 98, 99, 100, 101, 102, 103, 104, 105, 106, 107, 108, 109, 110, 111, 112, 113, 114, 115, 116, 117, 118, 119, 120, 121, 122, 123, 124, 125, 126, 127, 128, 129, 130, 131, 132, 133, 134, 135, 136, 137, 138, 139, 140, 141, 142, 143, 144, 145, 146, 147, 148, 149, 150, 151, 152, 153, 154, 155, 156, 157, 158, 159, 160, 161, 162, 163, 164, 165, 166, 167, 168, 169, 170, 171, 172, 173, 174, 175, 176, 177, 178, 179, 180, 181, 182, 183, 184, 185, 186, 187, 188, 189, 190, 191, 192, 193, 194, 195, 196, 197, 198, 199, 200, 201, 202, 203, 204, 205, 206, 207, 208, 209, 210, 211, 212, 213, 214, 215, 216, 217, 218, 219, 220, 221, 222, 223, 224, 225, 226, 227, 228, 229, 230, 231, 232, 233, 234, 235, 236, 237, 238, 239, 240, 241, 242, 243, 244, 245, 246, 247, 248, 249, 250, 251, 252, 253, 254, 255, 256, 257, 258, 259, 260, 261, 262, 263, 264, 265, 266, 267, 268, 269, 270, 271, 272, 273, 274, 275, 276, 277, 278, 279, 280, 281, 282, 283, 284, 285, 286, 287, 288, 289, 290, 291, 292, 293, 294, 295, 296, 297, 298, 299, 300, 301, 302, 303, 304, 305, 306, 307, 308, 309, 310, 311, 312, 313, 314, 315, 316, 317, 318, 319, 320, 321, 322, 323, 324, 325, 326, 327, 328, 329, 330],
      "LargestImagePixelValue": [1942, 1906, 1899, 1895, 1916, 1901, 1897, 1910, 1907, 1903, 1905, 1877, 1887, 1877, 1901, 1888, 1911, 1892, 1871, 1888, 1876, 1866, 1886, 1894, 1854, 1890, 1890, 1880, 1854, 1875, 1892, 1867, 1886, 1876, 1876, 1861, 1885, 1840, 1867, 1871, 1873, 1889, 1889, 1876, 1865, 1880, 1873, 1888, 1886, 1883, 1902, 1889, 1898, 1875, 1900, 1872, 1881, 1939, 1903, 1887, 1864, 1851, 1883, 1853, 1873, 1871, 1877, 1897, 1873, 1896, 1868, 1880, 1884, 1875, 1899, 1904, 1910, 1882, 1934, 1862, 1882, 1870, 1855, 1885, 1862, 1887, 1871, 1894, 1872, 1883, 1884, 1878, 1866, 1877, 1915, 1888, 1893, 1856, 1867, 1873, 1906, 1866, 1876, 1874, 1870, 1855, 1863, 1860, 1867, 1863, 1873, 1858, 1887, 1912, 1895, 1907, 1867, 1905, 1901, 1903, 1887, 1901, 1885, 1842, 1903, 1875, 1936, 1882, 1885, 1896, 1912, 1904, 1871, 1898, 1872, 1877, 1903, 1911, 1887, 1891, 1891, 1891, 1860, 1867, 1894, 1890, 1881, 1907, 1888, 1867, 1892, 1888, 1883, 1907, 1867, 1896, 1929, 1902, 1944, 1888, 1885, 1909, 1878, 1878, 1906, 1900, 1908, 1911, 1942, 1959, 1906, 1924, 2042, 1939, 1913, 1890, 1884, 1881, 1850, 1864, 1861, 1880, 1903, 1887, 1899, 1911, 1921, 1895, 1884, 1872, 1859, 1892, 1907, 1862, 1875, 1892, 1864, 1888, 1870, 1870, 1871, 1923, 1887, 1935, 1888, 1857, 1888, 1865, 1886, 1912, 1881, 1922, 1893, 1893, 1895, 1892, 1911, 1902, 1894, 1880, 1901, 1873, 1882, 1876, 1912, 1871, 1898, 1901, 1903, 1900, 1868, 1881, 1890, 1910, 1887, 1881, 1910, 1897, 1888, 1921, 1883, 1861, 1861, 1870, 1879, 1879, 1845, 1841, 1878, 1866, 1838, 1843, 1870, 1869, 1847, 1847, 1866, 1860, 1831, 1866, 1919, 1878, 1877, 1906, 1881, 1852, 1888, 1859, 1834, 1896, 1867, 1864, 1878, 1900, 1889, 1850, 1876, 1848, 1865, 1874, 1852, 1854, 1849, 1849, 1860, 1848, 1863, 1847, 1844, 1859, 1862, 1884, 1841, 1827, 1857, 1827, 1838, 1869, 1841, 1830, 1856, 1853, 1845, 1826, 1848, 1846, 1889, 1858, 1866, 1845, 1849, 1856, 1859, 1857, 1867, 1853, 1851, 1845, 1839, 1862, 1937, 1895, 1841, 1869, 1855, 1849, 1852, 1865, 1895, 1881],
      "WindowCenter": [410.0, 408.0, 407.0, 407.0, 407.0, 407.0, 406.0, 407.0, 407.0, 406.0, 406.0, 405.0, 404.0, 405.0, 406.0, 406.0, 407.0, 407.0, 407.0, 408.0, 408.0, 408.0, 409.0, 408.0, 407.0, 407.0, 407.0, 407.0, 407.0, 407.0, 408.0, 408.0, 408.0, 408.0, 407.0, 408.0, 408.0, 407.0, 406.0, 406.0, 405.0, 406.0, 405.0, 406.0, 407.0, 407.0, 408.0, 407.0, 407.0, 407.0, 407.0, 407.0, 408.0, 407.0, 408.0, 408.0, 408.0, 409.0, 408.0, 407.0, 407.0, 407.0, 407.0, 407.0, 407.0, 407.0, 409.0, 409.0, 409.0, 409.0, 408.0, 407.0, 407.0, 407.0, 409.0, 409.0, 410.0, 410.0, 409.0, 408.0, 407.0, 407.0, 406.0, 406.0, 405.0, 406.0, 406.0, 407.0, 408.0, 409.0, 409.0, 410.0, 411.0, 411.0, 412.0, 410.0, 409.0, 407.0, 407.0, 407.0, 409.0, 408.0, 408.0, 407.0, 407.0, 406.0, 406.0, 405.0, 405.0, 406.0, 406.0, 406.0, 406.0, 407.0, 407.0, 408.0, 408.0, 409.0, 408.0, 407.0, 407.0, 407.0, 406.0, 407.0, 408.0, 408.0, 409.0, 409.0, 408.0, 409.0, 409.0, 408.0, 407.0, 407.0, 406.0, 407.0, 407.0, 408.0, 409.0, 409.0, 409.0, 409.0, 407.0, 407.0, 408.0, 407.0, 407.0, 407.0, 407.0, 407.0, 408.0, 408.0, 408.0, 408.0, 408.0, 409.0, 409.0, 409.0, 409.0, 409.0, 408.0, 408.0, 408.0, 407.0, 408.0, 408.0, 409.0, 410.0, 411.0, 412.0, 410.0, 410.0, 411.0, 410.0, 410.0, 409.0, 408.0, 407.0, 406.0, 407.0, 408.0, 409.0, 410.0, 410.0, 409.0, 409.0, 409.0, 409.0, 409.0, 410.0, 409.0, 410.0, 408.0, 407.0, 406.0, 406.0, 405.0, 405.0, 405.0, 406.0, 407.0, 408.0, 408.0, 409.0, 408.0, 407.0, 407.0, 406.0, 406.0, 406.0, 407.0, 407.0, 407.0, 407.0, 407.0, 407.0, 407.0, 406.0, 406.0, 406.0, 407.0, 407.0, 407.0, 407.0, 407.0, 407.0, 408.0, 408.0, 409.0, 409.0, 408.0, 408.0, 408.0, 409.0, 409.0, 409.0, 410.0, 410.0, 410.0, 409.0, 408.0, 407.0, 406.0, 406.0, 405.0, 405.0, 404.0, 403.0, 405.0, 405.0, 405.0, 406.0, 406.0, 406.0, 405.0, 405.0, 406.0, 406.0, 406.0, 407.0, 408.0, 408.0, 408.0, 408.0, 407.0, 407.0, 408.0, 407.0, 407.0, 408.0, 407.0, 408.0, 408.0, 409.0, 409.0, 409.0, 409.0, 407.0, 407.0, 408.0, 407.0, 407.0, 406.0, 406.0, 406.0, 406.0, 406.0, 407.0, 407.0, 408.0, 408.0, 409.0, 408.0, 407.0, 407.0, 407.0, 407.0, 408.0, 407.0, 408.0, 408.0, 407.0, 407.0, 407.0, 408.0, 408.0, 409.0, 408.0, 409.0, 408.0, 408.0, 409.0, 409.0, 409.0, 408.0, 408.0, 408.0, 409.0, 409.0, 410.0, 412.0, 412.0, 410.0, 410.0, 409.0, 408.0, 407.0, 407.0, 407.0, 406.0],
