{
  "AcquisitionMatrixPE": 104,
  "AcquisitionNumber": 1,
  "AcquisitionTime": "11:33:19.875000",
  "BandwidthPerPixelPhaseEncode": 43.054,
  "BaseResolution": 104,
  "CoilString": "C:E1_2",
  "ConversionSoftware": "dcm2niix",
  "ConversionSoftwareVersion": "v1.0.20191031",
  "DerivedVendorReportedEchoSpacing": 0.000669999,
  "DeviceSerialNumber": "18932",
  "DwellTime": 2.8e-06,
  "EchoTime": 0.02,
  "EffectiveEchoSpacing": 0.000223333,
  "FlipAngle": 30,
  "ImageComments": "Unaliased_MB2_PE2",
  "ImageOrientationPatientDICOM": [1, 0, 0, 0, 0.981627, -0.190809],
  "ImageType": [
    "ORIGINAL",
    "PRIMARY",
    "M",
    "MB",
    "ND",
    "MOSAIC"
],
  "ImagingFrequency": 297.229,
  "InPlanePhaseEncodingDirectionDICOM": "COL",
  "InstitutionAddress": "Richmond_Street_North_1151_London_409EF2_Ontario_CA_N6A_5B7",
  "InstitutionName": "Robarts_Reserch_Institute",
  "InstitutionalDepartmentName": "Department",
  "MRAcquisitionType": "2D",
  "MagneticFieldStrength": 6.98,
  "Manufacturer": "Siemens",
  "ManufacturersModelName": "Investigational_Device_7T",
  "Modality": "MR",
  "MultibandAccelerationFactor": 2,
  "ParallelReductionFactorInPlane": 3,
  "PartialFourier": 0.875,
  "PatientPosition": "HFS",
  "PercentPhaseFOV": 100,
  "PhaseEncodingDirection": "j-",
  "PhaseEncodingSteps": 91,
  "PhaseResolution": 1,
  "PixelBandwidth": 1717,
  "ProcedureStepDescription": "Diedrichsen_SeqRep4",
  "ProtocolName": "mbep2d_bold_mb2_p3_AP_2iso",
  "PulseSequenceDetails": "%CustomerSeq%_cmrr_mbep2d_bold",
  "ReceiveCoilName": "CFMM_8Tx32Rx",
  "ReconMatrixPE": 104,
  "RefLinesPE": 36,
  "RepetitionTime": 1,
  "ScanOptions": "PFP_FS",
  "ScanningSequence": "EP",
  "SequenceName": "epfid2d1_104",
  "SequenceVariant": "SK_SS",
  "SeriesDescription": "mbep2d_bold_mb2_p3_AP_2iso",
  "SeriesNumber": 13,
  "ShimSetting": [25, 2065, 4, 1582, -21, -142, 282, -97],
  "SliceThickness": 2,
  "SliceTiming": [0, 0.23, 0.4575, 0.685, 0.9125, 0.1375, 0.365, 0.595, 0.8225, 0.0475, 0.275, 0.5025, 0.73, 0.96, 0.1825, 0.4125, 0.64, 0.8675, 0.0925, 0.32, 0.5475, 0.7775, 0, 0.23, 0.4575, 0.685, 0.9125, 0.1375, 0.365, 0.595, 0.8225, 0.0475, 0.275, 0.5025, 0.73, 0.96, 0.1825, 0.4125, 0.64, 0.8675, 0.0925, 0.32, 0.5475, 0.7775],
  "SoftwareVersions": "syngo_MR_B17",
  "SpacingBetweenSlices": 2,
  "StationName": "MASTER",
  "TaskName": "dsp",
  "TotalReadoutTime": 0.0230033,
  "TxRefAmp": 120,
  "dcmmeta_affine": [
    [-2.0, 0.0, 0.0, 105.4527816772461],
    [0.0, 1.9632543325424194, -0.3816179633140564, -114.44151306152344],
    [0.0, 0.3816179633140564, 1.9632543325424194, -53.73161315917969],
    [0.0, 0.0, 0.0, 1.0]
],
  "dcmmeta_reorient_transform": [
    [0.0, -1.0, 0.0, 103.0],
    [1.0, 0.0, 0.0, 0.0],
    [0.0, 0.0, 1.0, 0.0],
    [0.0, 0.0, 0.0, 1.0]
],
  "dcmmeta_shape": [104, 104, 44, 330],
  "dcmmeta_slice_dim": 2,
  "dcmmeta_version": 0.6,
  "global": {
    "const": {
      "AcquisitionMatrix": [104, 0, 0, 104],
      "AngioFlag": "N",
      "BitsAllocated": 16,
      "BitsStored": 12,
      "Columns": 728,
      "EchoNumbers": 1,
      "EchoTime": 20.0,
      "EchoTrainLength": 1,
      "FlipAngle": 30.0,
      "HighBit": 11,
      "ImageOrientationPatient": [1.0, 0.0, 0.0, 0.0, 0.98162718523795, -0.1908089861663],
      "ImagePositionPatient": [-729.45278453827, -700.30904958583, 104.63984555457],
      "ImageType": [
        "ORIGINAL",
        "PRIMARY",
        "M",
        "MB",
        "ND",
        "MOSAIC"
],
      "ImagedNucleus": "1H",
      "ImagingFrequency": 297.228777,
      "InPlanePhaseEncodingDirection": "COL",
      "MRAcquisitionType": "2D",
      "MagneticFieldStrength": 6.98,
      "Manufacturer": "SIEMENS",
      "ManufacturerModelName": "Investigational_Device_7T",
      "Modality": "MR",
      "NumberOfAverages": 1.0,
      "NumberOfPhaseEncodingSteps": 91,
      "PercentPhaseFieldOfView": 100.0,
      "PercentSampling": 100.0,
      "PerformedProcedureStepStartTime": "110711.390000",
      "PhotometricInterpretation": "MONOCHROME2",
      "PixelBandwidth": 1717.0,
      "PixelRepresentation": 0,
      "PixelSpacing": [2.0, 2.0],
      "ProtocolName": "mbep2d_bold_mb2_p3_AP 2iso",
      "RepetitionTime": 1000.0,
      "Rows": 728,
      "SAR": 0.0,
      "SamplesPerPixel": 1,
      "ScanOptions": [
        "PFP",
        "FS"
],
      "ScanningSequence": "EP",
      "SequenceName": "epfid2d1_104",
      "SequenceVariant": [
        "SK",
        "SS"
],
      "SeriesDescription": "mbep2d_bold_mb2_p3_AP 2iso",
      "SeriesNumber": 13,
      "SeriesTime": "113400.609000",
      "SliceLocation": -30.907942699106,
      "SliceThickness": 2.0,
      "SmallestImagePixelValue": 0,
      "SoftwareVersions": "syngo MR B17",
      "SpacingBetweenSlices": 1.9999999851176,
      "SpecificCharacterSet": "ISO_IR 100",
      "StudyID": "1",
      "StudyTime": "110711.328000",
      "TransmitCoilName": "CFMM_8Tx32Rx",
      "VariableFlipAngleFlag": "N",
      "WindowCenterWidthExplanation": "Algo1",
      "dBdt": 0.0},
    "slices": {}
  },
  "time": {
    "samples": {
      "AcquisitionNumber": [1, 2, 3, 4, 5, 6, 7, 8, 9, 10, 11, 12, 13, 14, 15, 16, 17, 18, 19, 20, 21, 22, 23, 24, 25, 26, 27, 28, 29, 30, 31, 32, 33, 34, 35, 36, 37, 38, 39, 40, 41, 42, 43, 44, 45, 46, 47, 48, 49, 50, 51, 52, 53, 54, 55, 56, 57, 58, 59, 60, 61, 62, 63, 64, 65, 66, 67, 68, 69, 70, 71, 72, 73, 74, 75, 76, 77, 78, 79, 80, 81, 82, 83, 84, 85, 86, 87, 88, 89, 90, 91, 92, 93, 94, 95, 96, 97, 98, 99, 100, 101, 102, 103, 104, 105, 106, 107, 108, 109, 110, 111, 112, 113, 114, 115, 116, 117, 118, 119, 120, 121, 122, 123, 124, 125, 126, 127, 128, 129, 130, 131, 132, 133, 134, 135, 136, 137, 138, 139, 140, 141, 142, 143, 144, 145, 146, 147, 148, 149, 150, 151, 152, 153, 154, 155, 156, 157, 158, 159, 160, 161, 162, 163, 164, 165, 166, 167, 168, 169, 170, 171, 172, 173, 174, 175, 176, 177, 178, 179, 180, 181, 182, 183, 184, 185, 186, 187, 188, 189, 190, 191, 192, 193, 194, 195, 196, 197, 198, 199, 200, 201, 202, 203, 204, 205, 206, 207, 208, 209, 210, 211, 212, 213, 214, 215, 216, 217, 218, 219, 220, 221, 222, 223, 224, 225, 226, 227, 228, 229, 230, 231, 232, 233, 234, 235, 236, 237, 238, 239, 240, 241, 242, 243, 244, 245, 246, 247, 248, 249, 250, 251, 252, 253, 254, 255, 256, 257, 258, 259, 260, 261, 262, 263, 264, 265, 266, 267, 268, 269, 270, 271, 272, 273, 274, 275, 276, 277, 278, 279, 280, 281, 282, 283, 284, 285, 286, 287, 288, 289, 290, 291, 292, 293, 294, 295, 296, 297, 298, 299, 300, 301, 302, 303, 304, 305, 306, 307, 308, 309, 310, 311, 312, 313, 314, 315, 316, 317, 318, 319, 320, 321, 322, 323, 324, 325, 326, 327, 328, 329, 330],
      "AcquisitionTime": ["113319.875000", "113320.880000", "113321.885000", "113322.887500", "113323.892500", "113324.897500", "113325.900000", "113326.905000", "113327.907500", "113328.912500", "113329.917500", "113330.920000", "113331.925000", "113332.927500", "113333.932500", "113334.937500", "113335.940000", "113336.945000", "113337.947500", "113338.952500", "113339.957500", "113340.960000", "113341.965000", "113342.967500", "113343.972500", "113344.977500", "113345.980000", "113346.985000", "113347.987500", "113348.992500", "113349.997500", "113351.000000", "113352.005000", "113353.007500", "113354.012500", "113355.017500", "113356.020000", "113357.025000", "113358.030000", "113359.032500", "113400.037500", "113401.040000", "113402.045000", "113403.050000", "113404.052500", "113405.057500", "113406.060000", "113407.065000", "113408.070000", "113409.072500", "113410.077500", "113411.080000", "113412.085000", "113413.090000", "113414.092500", "113415.097500", "113416.100000", "113417.105000", "113418.110000", "113419.112500", "113420.117500", "113421.120000", "113422.125000", "113423.130000", "113424.132500", "113425.137500", "113426.142500", "113427.145000", "113428.150000", "113429.152500", "113430.157500", "113431.162500", "113432.165000", "113433.170000", "113434.172500", "113435.177500", "113436.182500", "113437.185000", "113438.190000", "113439.192500", "113440.197500", "113441.202500", "113442.205000", "113443.210000", "113444.212500", "113445.217500", "113446.222500", "113447.225000", "113448.230000", "113449.232500", "113450.237500", "113451.242500", "113452.245000", "113453.250000", "113454.252500", "113455.257500", "113456.262500", "113457.265000", "113458.270000", "113459.275000", "113500.277500", "113501.282500", "113502.285000", "113503.290000", "113504.295000", "113505.297500", "113506.302500", "113507.305000", "113508.310000", "113509.315000", "113510.317500", "113511.322500", "113512.325000", "113513.330000", "113514.335000", "113515.337500", "113516.342500", "113517.345000", "113518.350000", "113519.355000", "113520.357500", "113521.362500", "113522.365000", "113523.370000", "113524.375000", "113525.377500", "113526.382500", "113527.385000", "113528.390000", "113529.395000", "113530.397500", "113531.402500", "113532.407500", "113533.410000", "113534.415000", "113535.417500", "113536.422500", "113537.427500", "113538.430000", "113539.435000", "113540.437500", "113541.442500", "113542.447500", "113543.450000", "113544.455000", "113545.457500", "113546.462500", "113547.467500", "113548.470000", "113549.475000", "113550.477500", "113551.482500", "113552.487500", "113553.490000", "113554.495000", "113555.497500", "113556.502500", "113557.507500", "113558.510000", "113559.515000", "113600.520000", "113601.522500", "113602.527500", "113603.530000", "113604.535000", "113605.540000", "113606.542500", "113607.547500", "113608.550000", "113609.555000", "113610.560000", "113611.562500", "113612.567500", "113613.570000", "113614.575000", "113615.580000", "113616.582500", "113617.587500", "113618.590000", "113619.595000", "113620.600000", "113621.602500", "113622.607500", "113623.610000", "113624.615000", "113625.620000", "113626.622500", "113627.627500", "113628.630000", "113629.635000", "113630.640000", "113631.642500", "113632.647500", "113633.652500", "113634.655000", "113635.660000", "113636.662500", "113637.667500", "113638.672500", "113639.675000", "113640.680000", "113641.682500", "113642.687500", "113643.692500", "113644.695000", "113645.700000", "113646.702500", "113647.707500", "113648.712500", "113649.715000", "113650.720000", "113651.722500", "113652.727500", "113653.732500", "113654.735000", "113655.740000", "113656.742500", "113657.747500", "113658.752500", "113659.755000", "113700.760000", "113701.762500", "113702.767500", "113703.772500", "113704.775000", "113705.780000", "113706.785000", "113707.787500", "113708.792500", "113709.795000", "113710.800000", "113711.805000", "113712.807500", "113713.812500", "113714.815000", "113715.820000", "113716.825000", "113717.827500", "113718.832500", "113719.835000", "113720.840000", "113721.845000", "113722.847500", "113723.852500", "113724.855000", "113725.860000", "113726.865000", "113727.867500", "113728.872500", "113729.875000", "113730.880000", "113731.885000", "113732.887500", "113733.892500", "113734.897500", "113735.900000", "113736.905000", "113737.907500", "113738.912500", "113739.917500", "113740.920000", "113741.925000", "113742.927500", "113743.932500", "113744.937500", "113745.940000", "113746.945000", "113747.947500", "113748.952500", "113749.957500", "113750.960000", "113751.965000", "113752.967500", "113753.972500", "113754.977500", "113755.980000", "113756.985000", "113757.987500", "113758.992500", "113759.997500", "113801.000000", "113802.005000", "113803.007500", "113804.012500", "113805.017500", "113806.020000", "113807.025000", "113808.030000", "113809.032500", "113810.037500", "113811.040000", "113812.045000", "113813.050000", "113814.052500", "113815.057500", "113816.060000", "113817.065000", "113818.070000", "113819.072500", "113820.077500", "113821.080000", "113822.085000", "113823.090000", "113824.092500", "113825.097500", "113826.100000", "113827.105000", "113828.110000", "113829.112500", "113830.117500", "113831.120000", "113832.125000", "113833.130000", "113834.132500", "113835.137500", "113836.142500", "113837.145000", "113838.150000", "113839.152500", "113840.157500", "113841.162500", "113842.165000", "113843.170000", "113844.172500", "113845.177500", "113846.182500", "113847.185000", "113848.190000", "113849.192500", "113850.197500"],
      "ContentTime": ["113400.609000", "113400.625000", "113400.625000", "113400.625000", "113400.625000", "113400.625000", "113400.625000", "113400.640000", "113400.640000", "113400.640000", "113400.640000", "113400.640000", "113400.640000", "113400.656000", "113400.656000", "113400.656000", "113400.656000", "113400.656000", "113400.656000", "113400.671000", "113400.671000", "113400.671000", "113400.671000", "113400.671000", "113400.671000", "113400.687000", "113400.687000", "113400.687000", "113400.687000", "113400.687000", "113400.687000", "113400.687000", "113400.687000", "113400.703000", "113400.703000", "113400.703000", "113400.703000", "113400.703000", "113400.703000", "113420.546000", "113420.562000", "113420.562000", "113420.562000", "113420.562000", "113420.562000", "113420.578000", "113420.578000", "113420.578000", "113420.578000", "113420.578000", "113420.593000", "113420.593000", "113420.593000", "113420.593000", "113420.593000", "113420.593000", "113420.593000", "113420.609000", "113420.609000", "113440.546000", "113440.562000", "113440.562000", "113440.562000", "113440.562000", "113440.562000", "113440.562000", "113440.562000", "113440.578000", "113440.578000", "113440.578000", "113440.578000", "113440.578000", "113440.578000", "113440.578000", "113440.593000", "113440.593000", "113440.593000", "113440.593000", "113440.593000", "113500.546000", "113500.562000", "113500.562000", "113500.562000", "113500.562000", "113500.562000", "113500.578000", "113500.578000", "113500.578000", "113500.578000", "113500.578000", "113500.578000", "113500.593000", "113500.593000", "113500.593000", "113500.593000", "113500.609000", "113500.609000", "113500.609000", "113500.609000", "113520.546000", "113520.562000", "113520.562000", "113520.562000", "113520.562000", "113520.562000", "113520.578000", "113520.578000", "113520.578000", "113520.578000", "113520.578000", "113520.593000", "113520.593000", "113520.593000", "113520.593000", "113520.593000", "113520.593000", "113520.593000", "113520.593000", "113520.609000", "113540.546000", "113540.562000", "113540.562000", "113540.562000", "113540.562000", "113540.562000", "113540.562000", "113540.578000", "113540.578000", "113540.578000", "113540.593000", "113540.593000", "113540.593000", "113540.593000", "113540.593000", "113540.593000", "113540.609000", "113540.609000", "113540.609000", "113540.609000", "113600.546000", "113600.562000", "113600.562000", "113600.562000", "113600.562000", "113600.562000", "113600.578000", "113600.578000", "113600.578000", "113600.578000", "113600.578000", "113600.578000", "113600.593000", "113600.593000", "113600.593000", "113600.593000", "113600.593000", "113600.593000", "113600.609000", "113600.609000", "113620.546000", "113620.562000", "113620.562000", "113620.562000", "113620.562000", "113620.562000", "113620.562000", "113620.578000", "113620.578000", "113620.578000", "113620.609000", "113620.609000", "113620.609000", "113620.609000", "113620.609000", "113620.609000", "113620.625000", "113620.625000", "113620.625000", "113620.625000", "113640.546000", "113640.562000", "113640.562000", "113640.562000", "113640.562000", "113640.562000", "113640.578000", "113640.578000", "113640.578000", "113640.593000", "113640.593000", "113640.593000", "113640.593000", "113640.593000", "113640.593000", "113640.609000", "113640.609000", "113640.609000", "113640.609000", "113640.609000", "113700.546000", "113700.562000", "113700.562000", "113700.562000", "113700.562000", "113700.562000", "113700.562000", "113700.578000", "113700.578000", "113700.578000", "113700.578000", "113700.578000", "113700.578000", "113700.578000", "113700.593000", "113700.593000", "113700.593000", "113700.593000", "113700.593000", "113700.593000", "113720.546000", "113720.562000", "113720.562000", "113720.562000", "113720.578000", "113720.578000", "113720.578000", "113720.578000", "113720.578000", "113720.593000", "113720.593000", "113720.593000", "113720.593000", "113720.593000", "113720.593000", "113720.593000", "113720.609000", "113720.609000", "113720.609000", "113720.609000", "113740.546000", "113740.562000", "113740.562000", "113740.562000", "113740.562000", "113740.562000", "113740.562000", "113740.562000", "113740.578000", "113740.578000", "113740.578000", "113740.578000", "113740.593000", "113740.593000", "113740.593000", "113740.593000", "113740.593000", "113740.593000", "113740.609000", "113740.609000", "113800.546000", "113800.562000", "113800.562000", "113800.562000", "113800.562000", "113800.578000", "113800.578000", "113800.578000", "113800.578000", "113800.578000", "113800.578000", "113800.593000", "113800.593000", "113800.593000", "113800.593000", "113800.593000", "113800.593000", "113800.609000", "113800.609000", "113800.609000", "113820.546000", "113820.562000", "113820.562000", "113820.562000", "113820.562000", "113820.562000", "113820.562000", "113820.578000", "113820.578000", "113820.578000", "113820.578000", "113820.578000", "113820.578000", "113820.593000", "113820.593000", "113820.593000", "113820.609000", "113820.609000", "113820.609000", "113820.609000", "113840.546000", "113840.562000", "113840.562000", "113840.562000", "113840.562000", "113840.562000", "113840.562000", "113840.562000", "113840.578000", "113840.578000", "113840.578000", "113840.578000", "113840.578000", "113840.578000", "113840.593000", "113840.593000", "113840.609000", "113840.609000", "113840.609000", "113840.609000", "113855.593000", "113855.593000", "113855.593000", "113855.593000", "113855.593000", "113855.609000", "113855.609000", "113855.609000", "113855.609000", "113855.609000", "113855.609000"],
      "InstanceCreationTime": ["113400.609000", "113400.625000", "113400.625000", "113400.625000", "113400.625000", "113400.625000", "113400.625000", "113400.640000", "113400.640000", "113400.640000", "113400.640000", "113400.640000", "113400.640000", "113400.656000", "113400.656000", "113400.656000", "113400.656000", "113400.656000", "113400.656000", "113400.671000", "113400.671000", "113400.671000", "113400.671000", "113400.671000", "113400.671000", "113400.687000", "113400.687000", "113400.687000", "113400.687000", "113400.687000", "113400.687000", "113400.687000", "113400.687000", "113400.703000", "113400.703000", "113400.703000", "113400.703000", "113400.703000", "113400.703000", "113420.546000", "113420.562000", "113420.562000", "113420.562000", "113420.562000", "113420.562000", "113420.578000", "113420.578000", "113420.578000", "113420.578000", "113420.578000", "113420.593000", "113420.593000", "113420.593000", "113420.593000", "113420.593000", "113420.593000", "113420.593000", "113420.609000", "113420.609000", "113440.546000", "113440.562000", "113440.562000", "113440.562000", "113440.562000", "113440.562000", "113440.562000", "113440.562000", "113440.578000", "113440.578000", "113440.578000", "113440.578000", "113440.578000", "113440.578000", "113440.578000", "113440.593000", "113440.593000", "113440.593000", "113440.593000", "113440.593000", "113500.546000", "113500.562000", "113500.562000", "113500.562000", "113500.562000", "113500.562000", "113500.578000", "113500.578000", "113500.578000", "113500.578000", "113500.578000", "113500.578000", "113500.593000", "113500.593000", "113500.593000", "113500.593000", "113500.609000", "113500.609000", "113500.609000", "113500.609000", "113520.546000", "113520.562000", "113520.562000", "113520.562000", "113520.562000", "113520.562000", "113520.578000", "113520.578000", "113520.578000", "113520.578000", "113520.578000", "113520.593000", "113520.593000", "113520.593000", "113520.593000", "113520.593000", "113520.593000", "113520.593000", "113520.593000", "113520.609000", "113540.546000", "113540.562000", "113540.562000", "113540.562000", "113540.562000", "113540.562000", "113540.562000", "113540.578000", "113540.578000", "113540.578000", "113540.593000", "113540.593000", "113540.593000", "113540.593000", "113540.593000", "113540.593000", "113540.609000", "113540.609000", "113540.609000", "113540.609000", "113600.546000", "113600.562000", "113600.562000", "113600.562000", "113600.562000", "113600.562000", "113600.578000", "113600.578000", "113600.578000", "113600.578000", "113600.578000", "113600.578000", "113600.593000", "113600.593000", "113600.593000", "113600.593000", "113600.593000", "113600.593000", "113600.609000", "113600.609000", "113620.546000", "113620.562000", "113620.562000", "113620.562000", "113620.562000", "113620.562000", "113620.562000", "113620.578000", "113620.578000", "113620.578000", "113620.609000", "113620.609000", "113620.609000", "113620.609000", "113620.609000", "113620.609000", "113620.625000", "113620.625000", "113620.625000", "113620.625000", "113640.546000", "113640.562000", "113640.562000", "113640.562000", "113640.562000", "113640.562000", "113640.578000", "113640.578000", "113640.578000", "113640.593000", "113640.593000", "113640.593000", "113640.593000", "113640.593000", "113640.593000", "113640.609000", "113640.609000", "113640.609000", "113640.609000", "113640.609000", "113700.546000", "113700.562000", "113700.562000", "113700.562000", "113700.562000", "113700.562000", "113700.562000", "113700.578000", "113700.578000", "113700.578000", "113700.578000", "113700.578000", "113700.578000", "113700.578000", "113700.593000", "113700.593000", "113700.593000", "113700.593000", "113700.593000", "113700.593000", "113720.546000", "113720.562000", "113720.562000", "113720.562000", "113720.578000", "113720.578000", "113720.578000", "113720.578000", "113720.578000", "113720.593000", "113720.593000", "113720.593000", "113720.593000", "113720.593000", "113720.593000", "113720.593000", "113720.609000", "113720.609000", "113720.609000", "113720.609000", "113740.546000", "113740.562000", "113740.562000", "113740.562000", "113740.562000", "113740.562000", "113740.562000", "113740.562000", "113740.578000", "113740.578000", "113740.578000", "113740.578000", "113740.593000", "113740.593000", "113740.593000", "113740.593000", "113740.593000", "113740.593000", "113740.609000", "113740.609000", "113800.546000", "113800.562000", "113800.562000", "113800.562000", "113800.562000", "113800.578000", "113800.578000", "113800.578000", "113800.578000", "113800.578000", "113800.578000", "113800.593000", "113800.593000", "113800.593000", "113800.593000", "113800.593000", "113800.593000", "113800.609000", "113800.609000", "113800.609000", "113820.546000", "113820.562000", "113820.562000", "113820.562000", "113820.562000", "113820.562000", "113820.562000", "113820.578000", "113820.578000", "113820.578000", "113820.578000", "113820.578000", "113820.578000", "113820.593000", "113820.593000", "113820.593000", "113820.609000", "113820.609000", "113820.609000", "113820.609000", "113840.546000", "113840.562000", "113840.562000", "113840.562000", "113840.562000", "113840.562000", "113840.562000", "113840.562000", "113840.578000", "113840.578000", "113840.578000", "113840.578000", "113840.578000", "113840.578000", "113840.593000", "113840.593000", "113840.609000", "113840.609000", "113840.609000", "113840.609000", "113855.593000", "113855.593000", "113855.593000", "113855.593000", "113855.593000", "113855.609000", "113855.609000", "113855.609000", "113855.609000", "113855.609000", "113855.609000"],
      "InstanceNumber": [1, 2, 3, 4, 5, 6, 7, 8, 9, 10, 11, 12, 13, 14, 15, 16, 17, 18, 19, 20, 21, 22, 23, 24, 25, 26, 27, 28, 29, 30, 31, 32, 33, 34, 35, 36, 37, 38, 39, 40, 41, 42, 43, 44, 45, 46, 47, 48, 49, 50, 51, 52, 53, 54, 55, 56, 57, 58, 59, 60, 61, 62, 63, 64, 65, 66, 67, 68, 69, 70, 71, 72, 73, 74, 75, 76, 77, 78, 79, 80, 81, 82, 83, 84, 85, 86, 87, 88, 89, 90, 91, 92, 93, 94, 95, 96, 97, 98, 99, 100, 101, 102, 103, 104, 105, 106, 107, 108, 109, 110, 111, 112, 113, 114, 115, 116, 117, 118, 119, 120, 121, 122, 123, 124, 125, 126, 127, 128, 129, 130, 131, 132, 133, 134, 135, 136, 137, 138, 139, 140, 141, 142, 143, 144, 145, 146, 147, 148, 149, 150, 151, 152, 153, 154, 155, 156, 157, 158, 159, 160, 161, 162, 163, 164, 165, 166, 167, 168, 169, 170, 171, 172, 173, 174, 175, 176, 177, 178, 179, 180, 181, 182, 183, 184, 185, 186, 187, 188, 189, 190, 191, 192, 193, 194, 195, 196, 197, 198, 199, 200, 201, 202, 203, 204, 205, 206, 207, 208, 209, 210, 211, 212, 213, 214, 215, 216, 217, 218, 219, 220, 221, 222, 223, 224, 225, 226, 227, 228, 229, 230, 231, 232, 233, 234, 235, 236, 237, 238, 239, 240, 241, 242, 243, 244, 245, 246, 247, 248, 249, 250, 251, 252, 253, 254, 255, 256, 257, 258, 259, 260, 261, 262, 263, 264, 265, 266, 267, 268, 269, 270, 271, 272, 273, 274, 275, 276, 277, 278, 279, 280, 281, 282, 283, 284, 285, 286, 287, 288, 289, 290, 291, 292, 293, 294, 295, 296, 297, 298, 299, 300, 301, 302, 303, 304, 305, 306, 307, 308, 309, 310, 311, 312, 313, 314, 315, 316, 317, 318, 319, 320, 321, 322, 323, 324, 325, 326, 327, 328, 329, 330],
      "LargestImagePixelValue": [2023, 2006, 1993, 2018, 2018, 1980, 1969, 1990, 1989, 1992, 2013, 1965, 1962, 1943, 2000, 1984, 1992, 1988, 1986, 1984, 1996, 1995, 1987, 1983, 1951, 1959, 2016, 1973, 1986, 2007, 2015, 2004, 1992, 1980, 2004, 1993, 1981, 1966, 1960, 1986, 1977, 1995, 1992, 1988, 2005, 1962, 1965, 1954, 1964, 1973, 1972, 1990, 1991, 1969, 1960, 1969, 1981, 1973, 1952, 1937, 1960, 1974, 1937, 1933, 1974, 1971, 1970, 1947, 1950, 1986, 1955, 1967, 1956, 1937, 1950, 1959, 1953, 1963, 1951, 1990, 1947, 1921, 1947, 1994, 1984, 1908, 1951, 1962, 1951, 1980, 1960, 1965, 1969, 1934, 1932, 1961, 1953, 1934, 1952, 1961, 1929, 1980, 1972, 1944, 1972, 1959, 1963, 1970, 1940, 1981, 1954, 1969, 1983, 1995, 1938, 1934, 1983, 1960, 1935, 1967, 1927, 1920, 1959, 1957, 1963, 1937, 1938, 1991, 1977, 1982, 2007, 1991, 2020, 2008, 1990, 1965, 1954, 1931, 1979, 2031, 1995, 2004, 1998, 1982, 2020, 2000, 1983, 1967, 1992, 1990, 1945, 1958, 1990, 1974, 1968, 1953, 1973, 1970, 1961, 2005, 1999, 2016, 1961, 1943, 1978, 1979, 2015, 1987, 1962, 2014, 1970, 1924, 2002, 2023, 1974, 1958, 1948, 1957, 1973, 1967, 2013, 1969, 1993, 1999, 1965, 2009, 1965, 2012, 1996, 2006, 2022, 2000, 1998, 1998, 1988, 2023, 2018, 1972, 1961, 2083, 2066, 1973, 1932, 1971, 1929, 1969, 1980, 1948, 1943, 1968, 1960, 1997, 1977, 1982, 2009, 1968, 1962, 2002, 2019, 2002, 1981, 2006, 2031, 2010, 2001, 2004, 1990, 2009, 2020, 2005, 2009, 2000, 2032, 2016, 1998, 1993, 1986, 2046, 2032, 2017, 2047, 2055, 2029, 2020, 2042, 2052, 2038, 1987, 2039, 2027, 2037, 2055, 1968, 2038, 2065, 2041, 2044, 2049, 2046, 2073, 2022, 1989, 1990, 2061, 2090, 2083, 2037, 2093, 2057, 2060, 2056, 2070, 2026, 2070, 2095, 2075, 2049, 2071, 2023, 2031, 2023, 1971, 2012, 2039, 2030, 2020, 2006, 2028, 2028, 2053, 2068, 2035, 2026, 2024, 2035, 2031, 2065, 2033, 2013, 2039, 2044, 2024, 2000, 2029, 2043, 2017, 2001, 2018, 2017, 2025, 2038, 2017, 2035, 2026, 2008, 2012, 2045, 2003, 2049, 2013, 1985, 2078, 2060, 2044, 2045, 2023, 2052, 2037, 2026, 2026],
      "WindowCenter": [418.0, 417.0, 417.0, 417.0, 416.0, 415.0, 415.0, 415.0, 416.0, 417.0, 418.0, 417.0, 418.0, 418.0, 419.0, 419.0, 419.0, 418.0, 417.0, 417.0, 417.0, 418.0, 417.0, 417.0, 417.0, 416.0, 417.0, 416.0, 416.0, 417.0, 417.0, 417.0, 416.0, 416.0, 416.0, 416.0, 415.0, 415.0, 415.0, 416.0, 417.0, 417.0, 418.0, 418.0, 420.0, 420.0, 419.0, 419.0, 418.0, 418.0, 418.0, 418.0, 418.0, 419.0, 421.0, 421.0, 422.0, 421.0, 419.0, 417.0, 416.0, 416.0, 415.0, 415.0, 415.0, 416.0, 417.0, 417.0, 417.0, 416.0, 415.0, 415.0, 415.0, 415.0, 415.0, 415.0, 416.0, 417.0, 417.0, 419.0, 419.0, 420.0, 419.0, 418.0, 417.0, 416.0, 416.0, 416.0, 415.0, 415.0, 415.0, 415.0, 416.0, 416.0, 415.0, 415.0, 415.0, 415.0, 415.0, 415.0, 415.0, 415.0, 415.0, 415.0, 417.0, 418.0, 419.0, 419.0, 418.0, 418.0, 418.0, 418.0, 418.0, 419.0, 417.0, 418.0, 419.0, 419.0, 418.0, 418.0, 417.0, 416.0, 416.0, 416.0, 416.0, 417.0, 417.0, 418.0, 418.0, 418.0, 418.0, 418.0, 416.0, 416.0, 416.0, 416.0, 416.0, 418.0, 420.0, 422.0, 421.0, 420.0, 419.0, 418.0, 418.0, 417.0, 416.0, 416.0, 416.0, 416.0, 416.0, 417.0, 419.0, 420.0, 420.0, 419.0, 420.0, 420.0, 420.0, 420.0, 418.0, 417.0, 416.0, 415.0, 416.0, 416.0, 416.0, 415.0, 415.0, 415.0, 415.0, 416.0, 419.0, 420.0, 421.0, 420.0, 419.0, 418.0, 417.0, 416.0, 415.0, 415.0, 416.0, 417.0, 418.0, 419.0, 419.0, 418.0, 417.0, 416.0, 416.0, 416.0, 417.0, 417.0, 418.0, 419.0, 419.0, 419.0, 419.0, 421.0, 423.0, 423.0, 421.0, 420.0, 417.0, 416.0, 416.0, 414.0, 415.0, 416.0, 418.0, 419.0, 418.0, 418.0, 417.0, 416.0, 417.0, 417.0, 417.0, 416.0, 416.0, 417.0, 418.0, 417.0, 417.0, 417.0, 417.0, 418.0, 419.0, 419.0, 418.0, 418.0, 418.0, 417.0, 417.0, 416.0, 416.0, 417.0, 417.0, 417.0, 418.0, 419.0, 419.0, 419.0, 419.0, 419.0, 417.0, 417.0, 419.0, 419.0, 420.0, 420.0, 420.0, 420.0, 419.0, 418.0, 418.0, 417.0, 418.0, 419.0, 421.0, 420.0, 420.0, 420.0, 418.0, 418.0, 417.0, 417.0, 417.0, 417.0, 417.0, 418.0, 418.0, 418.0, 419.0, 418.0, 418.0, 420.0, 420.0, 421.0, 421.0, 421.0, 421.0, 421.0, 420.0, 419.0, 418.0, 417.0, 417.0, 417.0, 417.0, 416.0, 416.0, 416.0, 415.0, 415.0, 417.0, 417.0, 417.0, 418.0, 419.0, 419.0, 418.0, 417.0, 417.0, 416.0, 416.0, 416.0, 416.0, 416.0, 417.0, 416.0, 416.0, 416.0, 417.0, 418.0, 419.0, 419.0, 421.0, 423.0, 422.0, 423.0, 421.0, 420.0, 419.0, 417.0, 418.0, 417.0, 416.0, 417.0],
