{
  "AcquisitionMatrixPE": 104,
  "AcquisitionNumber": 1,
  "AcquisitionTime": "11:40:15.185000",
  "BandwidthPerPixelPhaseEncode": 43.054,
  "BaseResolution": 104,
  "CoilString": "C:E1_2",
  "ConversionSoftware": "dcm2niix",
  "ConversionSoftwareVersion": "v1.0.20191031",
  "DerivedVendorReportedEchoSpacing": 0.000669999,
  "DeviceSerialNumber": "18932",
  "DwellTime": 2.8e-06,
  "EchoTime": 0.02,
  "EffectiveEchoSpacing": 0.000223333,
  "FlipAngle": 30,
  "ImageComments": "Unaliased_MB2_PE2",
  "ImageOrientationPatientDICOM": [1, 0, 0, 0, 0.981627, -0.190809],
  "ImageType": [
    "ORIGINAL",
    "PRIMARY",
    "M",
    "MB",
    "ND",
    "MOSAIC"
],
  "ImagingFrequency": 297.229,
  "InPlanePhaseEncodingDirectionDICOM": "COL",
  "InstitutionAddress": "Richmond_Street_North_1151_London_409EF2_Ontario_CA_N6A_5B7",
  "InstitutionName": "Robarts_Reserch_Institute",
  "InstitutionalDepartmentName": "Department",
  "MRAcquisitionType": "2D",
  "MagneticFieldStrength": 6.98,
  "Manufacturer": "Siemens",
  "ManufacturersModelName": "Investigational_Device_7T",
  "Modality": "MR",
  "MultibandAccelerationFactor": 2,
  "ParallelReductionFactorInPlane": 3,
  "PartialFourier": 0.875,
  "PatientPosition": "HFS",
  "PercentPhaseFOV": 100,
  "PhaseEncodingDirection": "j-",
  "PhaseEncodingSteps": 91,
  "PhaseResolution": 1,
  "PixelBandwidth": 1717,
  "ProcedureStepDescription": "Diedrichsen_SeqRep4",
  "ProtocolName": "mbep2d_bold_mb2_p3_AP_2iso",
  "PulseSequenceDetails": "%CustomerSeq%_cmrr_mbep2d_bold",
  "ReceiveCoilName": "CFMM_8Tx32Rx",
  "ReconMatrixPE": 104,
  "RefLinesPE": 36,
  "RepetitionTime": 1,
  "ScanOptions": "PFP_FS",
  "ScanningSequence": "EP",
  "SequenceName": "epfid2d1_104",
  "SequenceVariant": "SK_SS",
  "SeriesDescription": "mbep2d_bold_mb2_p3_AP_2iso",
  "SeriesNumber": 15,
  "ShimSetting": [25, 2065, 4, 1582, -21, -142, 282, -97],
  "SliceThickness": 2,
  "SliceTiming": [0, 0.23, 0.4575, 0.685, 0.9125, 0.1375, 0.365, 0.595, 0.8225, 0.0475, 0.275, 0.5025, 0.73, 0.9575, 0.1825, 0.4125, 0.64, 0.8675, 0.0925, 0.32, 0.5475, 0.7775, 0, 0.23, 0.4575, 0.685, 0.9125, 0.1375, 0.365, 0.595, 0.8225, 0.0475, 0.275, 0.5025, 0.73, 0.9575, 0.1825, 0.4125, 0.64, 0.8675, 0.0925, 0.32, 0.5475, 0.7775],
  "SoftwareVersions": "syngo_MR_B17",
  "SpacingBetweenSlices": 2,
  "StationName": "MASTER",
  "TaskName": "dsp",
  "TotalReadoutTime": 0.0230033,
  "TxRefAmp": 120,
  "dcmmeta_affine": [
    [-2.0, 0.0, 0.0, 105.4527816772461],
    [0.0, 1.9632543325424194, -0.3816179633140564, -114.44151306152344],
    [0.0, 0.3816179633140564, 1.9632543325424194, -53.73161315917969],
    [0.0, 0.0, 0.0, 1.0]
],
  "dcmmeta_reorient_transform": [
    [0.0, -1.0, 0.0, 103.0],
    [1.0, 0.0, 0.0, 0.0],
    [0.0, 0.0, 1.0, 0.0],
    [0.0, 0.0, 0.0, 1.0]
],
  "dcmmeta_shape": [104, 104, 44, 330],
  "dcmmeta_slice_dim": 2,
  "dcmmeta_version": 0.6,
  "global": {
    "const": {
      "AcquisitionMatrix": [104, 0, 0, 104],
      "AngioFlag": "N",
      "BitsAllocated": 16,
      "BitsStored": 12,
      "Columns": 728,
      "EchoNumbers": 1,
      "EchoTime": 20.0,
      "EchoTrainLength": 1,
      "FlipAngle": 30.0,
      "HighBit": 11,
      "ImageOrientationPatient": [1.0, 0.0, 0.0, 0.0, 0.98162718523795, -0.1908089861663],
      "ImagePositionPatient": [-729.45278453827, -700.30904958583, 104.63984555457],
      "ImageType": [
        "ORIGINAL",
        "PRIMARY",
        "M",
        "MB",
        "ND",
        "MOSAIC"
],
      "ImagedNucleus": "1H",
      "ImagingFrequency": 297.228788,
      "InPlanePhaseEncodingDirection": "COL",
      "MRAcquisitionType": "2D",
      "MagneticFieldStrength": 6.98,
      "Manufacturer": "SIEMENS",
      "ManufacturerModelName": "Investigational_Device_7T",
      "Modality": "MR",
      "NumberOfAverages": 1.0,
      "NumberOfPhaseEncodingSteps": 91,
      "PercentPhaseFieldOfView": 100.0,
      "PercentSampling": 100.0,
      "PerformedProcedureStepStartTime": "110711.390000",
      "PhotometricInterpretation": "MONOCHROME2",
      "PixelBandwidth": 1717.0,
      "PixelRepresentation": 0,
      "PixelSpacing": [2.0, 2.0],
      "ProtocolName": "mbep2d_bold_mb2_p3_AP 2iso",
      "RepetitionTime": 1000.0,
      "Rows": 728,
      "SAR": 0.0,
      "SamplesPerPixel": 1,
      "ScanOptions": [
        "PFP",
        "FS"
],
      "ScanningSequence": "EP",
      "SequenceName": "epfid2d1_104",
      "SequenceVariant": [
        "SK",
        "SS"
],
      "SeriesDescription": "mbep2d_bold_mb2_p3_AP 2iso",
      "SeriesNumber": 15,
      "SeriesTime": "114053.703000",
      "SliceLocation": -30.907942699106,
      "SliceThickness": 2.0,
      "SmallestImagePixelValue": 0,
      "SoftwareVersions": "syngo MR B17",
      "SpacingBetweenSlices": 1.9999999851176,
      "SpecificCharacterSet": "ISO_IR 100",
      "StudyID": "1",
      "StudyTime": "110711.328000",
      "TransmitCoilName": "CFMM_8Tx32Rx",
      "VariableFlipAngleFlag": "N",
      "WindowCenterWidthExplanation": "Algo1",
      "dBdt": 0.0},
    "slices": {}
  },
  "time": {
    "samples": {
      "AcquisitionNumber": [1, 2, 3, 4, 5, 6, 7, 8, 9, 10, 11, 12, 13, 14, 15, 16, 17, 18, 19, 20, 21, 22, 23, 24, 25, 26, 27, 28, 29, 30, 31, 32, 33, 34, 35, 36, 37, 38, 39, 40, 41, 42, 43, 44, 45, 46, 47, 48, 49, 50, 51, 52, 53, 54, 55, 56, 57, 58, 59, 60, 61, 62, 63, 64, 65, 66, 67, 68, 69, 70, 71, 72, 73, 74, 75, 76, 77, 78, 79, 80, 81, 82, 83, 84, 85, 86, 87, 88, 89, 90, 91, 92, 93, 94, 95, 96, 97, 98, 99, 100, 101, 102, 103, 104, 105, 106, 107, 108, 109, 110, 111, 112, 113, 114, 115, 116, 117, 118, 119, 120, 121, 122, 123, 124, 125, 126, 127, 128, 129, 130, 131, 132, 133, 134, 135, 136, 137, 138, 139, 140, 141, 142, 143, 144, 145, 146, 147, 148, 149, 150, 151, 152, 153, 154, 155, 156, 157, 158, 159, 160, 161, 162, 163, 164, 165, 166, 167, 168, 169, 170, 171, 172, 173, 174, 175, 176, 177, 178, 179, 180, 181, 182, 183, 184, 185, 186, 187, 188, 189, 190, 191, 192, 193, 194, 195, 196, 197, 198, 199, 200, 201, 202, 203, 204, 205, 206, 207, 208, 209, 210, 211, 212, 213, 214, 215, 216, 217, 218, 219, 220, 221, 222, 223, 224, 225, 226, 227, 228, 229, 230, 231, 232, 233, 234, 235, 236, 237, 238, 239, 240, 241, 242, 243, 244, 245, 246, 247, 248, 249, 250, 251, 252, 253, 254, 255, 256, 257, 258, 259, 260, 261, 262, 263, 264, 265, 266, 267, 268, 269, 270, 271, 272, 273, 274, 275, 276, 277, 278, 279, 280, 281, 282, 283, 284, 285, 286, 287, 288, 289, 290, 291, 292, 293, 294, 295, 296, 297, 298, 299, 300, 301, 302, 303, 304, 305, 306, 307, 308, 309, 310, 311, 312, 313, 314, 315, 316, 317, 318, 319, 320, 321, 322, 323, 324, 325, 326, 327, 328, 329, 330],
      "AcquisitionTime": ["114015.185000", "114016.190000", "114017.195000", "114018.197500", "114019.202500", "114020.205000", "114021.210000", "114022.215000", "114023.217500", "114024.222500", "114025.225000", "114026.230000", "114027.235000", "114028.237500", "114029.242500", "114030.245000", "114031.250000", "114032.255000", "114033.257500", "114034.262500", "114035.265000", "114036.270000", "114037.275000", "114038.277500", "114039.282500", "114040.287500", "114041.290000", "114042.295000", "114043.297500", "114044.302500", "114045.307500", "114046.310000", "114047.315000", "114048.317500", "114049.322500", "114050.327500", "114051.330000", "114052.335000", "114053.337500", "114054.342500", "114055.347500", "114056.350000", "114057.355000", "114058.357500", "114059.362500", "114100.367500", "114101.370000", "114102.375000", "114103.377500", "114104.382500", "114105.387500", "114106.390000", "114107.395000", "114108.397500", "114109.402500", "114110.407500", "114111.410000", "114112.415000", "114113.420000", "114114.422500", "114115.427500", "114116.430000", "114117.435000", "114118.440000", "114119.442500", "114120.447500", "114121.450000", "114122.455000", "114123.460000", "114124.462500", "114125.467500", "114126.470000", "114127.475000", "114128.480000", "114129.482500", "114130.487500", "114131.490000", "114132.495000", "114133.500000", "114134.502500", "114135.507500", "114136.510000", "114137.515000", "114138.520000", "114139.522500", "114140.527500", "114141.532500", "114142.535000", "114143.540000", "114144.542500", "114145.547500", "114146.552500", "114147.555000", "114148.560000", "114149.562500", "114150.567500", "114151.572500", "114152.575000", "114153.580000", "114154.582500", "114155.587500", "114156.592500", "114157.595000", "114158.600000", "114159.602500", "114200.607500", "114201.612500", "114202.615000", "114203.620000", "114204.622500", "114205.627500", "114206.632500", "114207.635000", "114208.640000", "114209.642500", "114210.647500", "114211.652500", "114212.655000", "114213.660000", "114214.665000", "114215.667500", "114216.672500", "114217.675000", "114218.680000", "114219.685000", "114220.687500", "114221.692500", "114222.695000", "114223.700000", "114224.705000", "114225.707500", "114226.712500", "114227.715000", "114228.720000", "114229.725000", "114230.727500", "114231.732500", "114232.735000", "114233.740000", "114234.745000", "114235.747500", "114236.752500", "114237.755000", "114238.760000", "114239.765000", "114240.767500", "114241.772500", "114242.775000", "114243.780000", "114244.785000", "114245.787500", "114246.792500", "114247.797500", "114248.800000", "114249.805000", "114250.807500", "114251.812500", "114252.817500", "114253.820000", "114254.825000", "114255.827500", "114256.832500", "114257.837500", "114258.840000", "114259.845000", "114300.847500", "114301.852500", "114302.857500", "114303.860000", "114304.865000", "114305.867500", "114306.872500", "114307.877500", "114308.880000", "114309.885000", "114310.887500", "114311.892500", "114312.897500", "114313.900000", "114314.905000", "114315.910000", "114316.912500", "114317.917500", "114318.920000", "114319.925000", "114320.930000", "114321.932500", "114322.937500", "114323.940000", "114324.945000", "114325.950000", "114326.952500", "114327.957500", "114328.960000", "114329.965000", "114330.970000", "114331.972500", "114332.977500", "114333.980000", "114334.985000", "114335.990000", "114336.992500", "114337.997500", "114339.000000", "114340.005000", "114341.010000", "114342.012500", "114343.017500", "114344.020000", "114345.025000", "114346.030000", "114347.032500", "114348.037500", "114349.042500", "114350.045000", "114351.050000", "114352.052500", "114353.057500", "114354.062500", "114355.065000", "114356.070000", "114357.072500", "114358.077500", "114359.082500", "114400.085000", "114401.090000", "114402.092500", "114403.097500", "114404.102500", "114405.105000", "114406.110000", "114407.112500", "114408.117500", "114409.122500", "114410.125000", "114411.130000", "114412.132500", "114413.137500", "114414.142500", "114415.145000", "114416.150000", "114417.155000", "114418.157500", "114419.162500", "114420.165000", "114421.170000", "114422.175000", "114423.177500", "114424.182500", "114425.185000", "114426.190000", "114427.195000", "114428.197500", "114429.202500", "114430.205000", "114431.210000", "114432.215000", "114433.217500", "114434.222500", "114435.225000", "114436.230000", "114437.235000", "114438.237500", "114439.242500", "114440.245000", "114441.250000", "114442.255000", "114443.257500", "114444.262500", "114445.265000", "114446.270000", "114447.275000", "114448.277500", "114449.282500", "114450.287500", "114451.290000", "114452.295000", "114453.297500", "114454.302500", "114455.307500", "114456.310000", "114457.315000", "114458.317500", "114459.322500", "114500.327500", "114501.330000", "114502.335000", "114503.337500", "114504.342500", "114505.347500", "114506.350000", "114507.355000", "114508.357500", "114509.362500", "114510.367500", "114511.370000", "114512.375000", "114513.377500", "114514.382500", "114515.387500", "114516.390000", "114517.395000", "114518.397500", "114519.402500", "114520.407500", "114521.410000", "114522.415000", "114523.420000", "114524.422500", "114525.427500", "114526.430000", "114527.435000", "114528.440000", "114529.442500", "114530.447500", "114531.450000", "114532.455000", "114533.460000", "114534.462500", "114535.467500", "114536.470000", "114537.475000", "114538.480000", "114539.482500", "114540.487500", "114541.490000", "114542.495000", "114543.500000", "114544.502500", "114545.507500"],
      "ContentTime": ["114053.718000", "114053.718000", "114053.718000", "114053.718000", "114053.718000", "114053.718000", "114053.718000", "114053.734000", "114053.734000", "114053.734000", "114053.734000", "114053.734000", "114053.734000", "114053.750000", "114053.750000", "114053.750000", "114053.750000", "114053.750000", "114053.750000", "114053.750000", "114053.765000", "114053.765000", "114053.765000", "114053.765000", "114053.765000", "114053.765000", "114053.765000", "114053.781000", "114053.781000", "114053.781000", "114053.781000", "114053.781000", "114053.781000", "114053.796000", "114053.796000", "114053.796000", "114053.796000", "114113.671000", "114113.687000", "114113.687000", "114113.687000", "114113.687000", "114113.687000", "114113.687000", "114113.687000", "114113.703000", "114113.703000", "114113.703000", "114113.703000", "114113.703000", "114113.718000", "114113.718000", "114113.718000", "114113.718000", "114113.734000", "114113.734000", "114113.734000", "114133.671000", "114133.687000", "114133.687000", "114133.687000", "114133.687000", "114133.687000", "114133.687000", "114133.687000", "114133.703000", "114133.703000", "114133.703000", "114133.703000", "114133.703000", "114133.703000", "114133.718000", "114133.718000", "114133.718000", "114133.718000", "114133.718000", "114133.718000", "114153.671000", "114153.687000", "114153.687000", "114153.687000", "114153.703000", "114153.703000", "114153.703000", "114153.703000", "114153.703000", "114153.703000", "114153.703000", "114153.703000", "114153.718000", "114153.718000", "114153.718000", "114153.718000", "114153.718000", "114153.718000", "114153.718000", "114153.734000", "114213.671000", "114213.687000", "114213.687000", "114213.687000", "114213.687000", "114213.687000", "114213.687000", "114213.687000", "114213.703000", "114213.703000", "114213.703000", "114213.703000", "114213.703000", "114213.703000", "114213.703000", "114213.718000", "114213.718000", "114213.718000", "114213.718000", "114213.718000", "114233.671000", "114233.687000", "114233.687000", "114233.687000", "114233.687000", "114233.687000", "114233.687000", "114233.687000", "114233.703000", "114233.703000", "114233.703000", "114233.703000", "114233.703000", "114233.703000", "114233.703000", "114233.718000", "114233.718000", "114233.718000", "114233.718000", "114233.718000", "114253.671000", "114253.687000", "114253.687000", "114253.687000", "114253.687000", "114253.687000", "114253.687000", "114253.687000", "114253.703000", "114253.703000", "114253.703000", "114253.703000", "114253.703000", "114253.718000", "114253.718000", "114253.718000", "114253.718000", "114253.718000", "114253.718000", "114253.718000", "114313.671000", "114313.687000", "114313.687000", "114313.687000", "114313.687000", "114313.687000", "114313.687000", "114313.687000", "114313.703000", "114313.703000", "114313.703000", "114313.703000", "114313.703000", "114313.718000", "114313.718000", "114313.718000", "114313.718000", "114313.718000", "114313.718000", "114313.734000", "114333.671000", "114333.687000", "114333.687000", "114333.687000", "114333.687000", "114333.687000", "114333.687000", "114333.687000", "114333.703000", "114333.703000", "114333.703000", "114333.703000", "114333.703000", "114333.703000", "114333.703000", "114333.718000", "114333.718000", "114333.718000", "114333.718000", "114333.718000", "114353.671000", "114353.687000", "114353.687000", "114353.687000", "114353.687000", "114353.687000", "114353.703000", "114353.703000", "114353.703000", "114353.703000", "114353.718000", "114353.718000", "114353.718000", "114353.718000", "114353.718000", "114353.718000", "114353.718000", "114353.718000", "114353.734000", "114353.734000", "114413.671000", "114413.687000", "114413.687000", "114413.687000", "114413.687000", "114413.687000", "114413.687000", "114413.703000", "114413.703000", "114413.703000", "114413.703000", "114413.703000", "114413.703000", "114413.718000", "114413.718000", "114413.718000", "114413.718000", "114413.718000", "114413.718000", "114413.718000", "114433.687000", "114433.687000", "114433.687000", "114433.687000", "114433.687000", "114433.687000", "114433.703000", "114433.703000", "114433.703000", "114433.703000", "114433.703000", "114433.703000", "114433.703000", "114433.718000", "114433.718000", "114433.718000", "114433.718000", "114433.718000", "114433.718000", "114433.718000", "114453.671000", "114453.687000", "114453.687000", "114453.687000", "114453.687000", "114453.687000", "114453.687000", "114453.703000", "114453.703000", "114453.703000", "114453.703000", "114453.703000", "114453.703000", "114453.703000", "114453.718000", "114453.718000", "114453.718000", "114453.718000", "114453.718000", "114453.718000", "114513.671000", "114513.687000", "114513.687000", "114513.687000", "114513.687000", "114513.687000", "114513.703000", "114513.703000", "114513.703000", "114513.703000", "114513.703000", "114513.703000", "114513.703000", "114513.718000", "114513.718000", "114513.718000", "114513.718000", "114513.718000", "114513.718000", "114513.718000", "114533.671000", "114533.687000", "114533.687000", "114533.687000", "114533.687000", "114533.687000", "114533.687000", "114533.687000", "114533.703000", "114533.703000", "114533.703000", "114533.703000", "114533.703000", "114533.703000", "114533.718000", "114533.718000", "114533.718000", "114533.718000", "114533.718000", "114533.718000", "114550.984000", "114550.984000", "114550.984000", "114550.984000", "114550.984000", "114551.000000", "114551.000000", "114551.000000", "114551.000000", "114551.000000", "114551.000000", "114551.015000", "114551.015000"],
      "InstanceCreationTime": ["114053.718000", "114053.718000", "114053.718000", "114053.718000", "114053.718000", "114053.718000", "114053.718000", "114053.734000", "114053.734000", "114053.734000", "114053.734000", "114053.734000", "114053.734000", "114053.750000", "114053.750000", "114053.750000", "114053.750000", "114053.750000", "114053.750000", "114053.750000", "114053.765000", "114053.765000", "114053.765000", "114053.765000", "114053.765000", "114053.765000", "114053.765000", "114053.781000", "114053.781000", "114053.781000", "114053.781000", "114053.781000", "114053.781000", "114053.796000", "114053.796000", "114053.796000", "114053.796000", "114113.671000", "114113.687000", "114113.687000", "114113.687000", "114113.687000", "114113.687000", "114113.687000", "114113.687000", "114113.703000", "114113.703000", "114113.703000", "114113.703000", "114113.703000", "114113.718000", "114113.718000", "114113.718000", "114113.718000", "114113.734000", "114113.734000", "114113.734000", "114133.671000", "114133.687000", "114133.687000", "114133.687000", "114133.687000", "114133.687000", "114133.687000", "114133.687000", "114133.703000", "114133.703000", "114133.703000", "114133.703000", "114133.703000", "114133.703000", "114133.718000", "114133.718000", "114133.718000", "114133.718000", "114133.718000", "114133.718000", "114153.671000", "114153.687000", "114153.687000", "114153.687000", "114153.703000", "114153.703000", "114153.703000", "114153.703000", "114153.703000", "114153.703000", "114153.703000", "114153.703000", "114153.718000", "114153.718000", "114153.718000", "114153.718000", "114153.718000", "114153.718000", "114153.718000", "114153.734000", "114213.671000", "114213.687000", "114213.687000", "114213.687000", "114213.687000", "114213.687000", "114213.687000", "114213.687000", "114213.703000", "114213.703000", "114213.703000", "114213.703000", "114213.703000", "114213.703000", "114213.703000", "114213.718000", "114213.718000", "114213.718000", "114213.718000", "114213.718000", "114233.671000", "114233.687000", "114233.687000", "114233.687000", "114233.687000", "114233.687000", "114233.687000", "114233.687000", "114233.703000", "114233.703000", "114233.703000", "114233.703000", "114233.703000", "114233.703000", "114233.703000", "114233.718000", "114233.718000", "114233.718000", "114233.718000", "114233.718000", "114253.671000", "114253.687000", "114253.687000", "114253.687000", "114253.687000", "114253.687000", "114253.687000", "114253.687000", "114253.703000", "114253.703000", "114253.703000", "114253.703000", "114253.703000", "114253.718000", "114253.718000", "114253.718000", "114253.718000", "114253.718000", "114253.718000", "114253.718000", "114313.671000", "114313.687000", "114313.687000", "114313.687000", "114313.687000", "114313.687000", "114313.687000", "114313.687000", "114313.703000", "114313.703000", "114313.703000", "114313.703000", "114313.703000", "114313.718000", "114313.718000", "114313.718000", "114313.718000", "114313.718000", "114313.718000", "114313.734000", "114333.671000", "114333.687000", "114333.687000", "114333.687000", "114333.687000", "114333.687000", "114333.687000", "114333.687000", "114333.703000", "114333.703000", "114333.703000", "114333.703000", "114333.703000", "114333.703000", "114333.703000", "114333.718000", "114333.718000", "114333.718000", "114333.718000", "114333.718000", "114353.671000", "114353.687000", "114353.687000", "114353.687000", "114353.687000", "114353.687000", "114353.703000", "114353.703000", "114353.703000", "114353.703000", "114353.718000", "114353.718000", "114353.718000", "114353.718000", "114353.718000", "114353.718000", "114353.718000", "114353.718000", "114353.734000", "114353.734000", "114413.671000", "114413.687000", "114413.687000", "114413.687000", "114413.687000", "114413.687000", "114413.687000", "114413.703000", "114413.703000", "114413.703000", "114413.703000", "114413.703000", "114413.703000", "114413.718000", "114413.718000", "114413.718000", "114413.718000", "114413.718000", "114413.718000", "114413.718000", "114433.687000", "114433.687000", "114433.687000", "114433.687000", "114433.687000", "114433.687000", "114433.703000", "114433.703000", "114433.703000", "114433.703000", "114433.703000", "114433.703000", "114433.703000", "114433.718000", "114433.718000", "114433.718000", "114433.718000", "114433.718000", "114433.718000", "114433.718000", "114453.671000", "114453.687000", "114453.687000", "114453.687000", "114453.687000", "114453.687000", "114453.687000", "114453.703000", "114453.703000", "114453.703000", "114453.703000", "114453.703000", "114453.703000", "114453.703000", "114453.718000", "114453.718000", "114453.718000", "114453.718000", "114453.718000", "114453.718000", "114513.671000", "114513.687000", "114513.687000", "114513.687000", "114513.687000", "114513.687000", "114513.703000", "114513.703000", "114513.703000", "114513.703000", "114513.703000", "114513.703000", "114513.703000", "114513.718000", "114513.718000", "114513.718000", "114513.718000", "114513.718000", "114513.718000", "114513.718000", "114533.671000", "114533.687000", "114533.687000", "114533.687000", "114533.687000", "114533.687000", "114533.687000", "114533.687000", "114533.703000", "114533.703000", "114533.703000", "114533.703000", "114533.703000", "114533.703000", "114533.718000", "114533.718000", "114533.718000", "114533.718000", "114533.718000", "114533.718000", "114550.984000", "114550.984000", "114550.984000", "114550.984000", "114550.984000", "114551.000000", "114551.000000", "114551.000000", "114551.000000", "114551.000000", "114551.000000", "114551.015000", "114551.015000"],
      "InstanceNumber": [1, 2, 3, 4, 5, 6, 7, 8, 9, 10, 11, 12, 13, 14, 15, 16, 17, 18, 19, 20, 21, 22, 23, 24, 25, 26, 27, 28, 29, 30, 31, 32, 33, 34, 35, 36, 37, 38, 39, 40, 41, 42, 43, 44, 45, 46, 47, 48, 49, 50, 51, 52, 53, 54, 55, 56, 57, 58, 59, 60, 61, 62, 63, 64, 65, 66, 67, 68, 69, 70, 71, 72, 73, 74, 75, 76, 77, 78, 79, 80, 81, 82, 83, 84, 85, 86, 87, 88, 89, 90, 91, 92, 93, 94, 95, 96, 97, 98, 99, 100, 101, 102, 103, 104, 105, 106, 107, 108, 109, 110, 111, 112, 113, 114, 115, 116, 117, 118, 119, 120, 121, 122, 123, 124, 125, 126, 127, 128, 129, 130, 131, 132, 133, 134, 135, 136, 137, 138, 139, 140, 141, 142, 143, 144, 145, 146, 147, 148, 149, 150, 151, 152, 153, 154, 155, 156, 157, 158, 159, 160, 161, 162, 163, 164, 165, 166, 167, 168, 169, 170, 171, 172, 173, 174, 175, 176, 177, 178, 179, 180, 181, 182, 183, 184, 185, 186, 187, 188, 189, 190, 191, 192, 193, 194, 195, 196, 197, 198, 199, 200, 201, 202, 203, 204, 205, 206, 207, 208, 209, 210, 211, 212, 213, 214, 215, 216, 217, 218, 219, 220, 221, 222, 223, 224, 225, 226, 227, 228, 229, 230, 231, 232, 233, 234, 235, 236, 237, 238, 239, 240, 241, 242, 243, 244, 245, 246, 247, 248, 249, 250, 251, 252, 253, 254, 255, 256, 257, 258, 259, 260, 261, 262, 263, 264, 265, 266, 267, 268, 269, 270, 271, 272, 273, 274, 275, 276, 277, 278, 279, 280, 281, 282, 283, 284, 285, 286, 287, 288, 289, 290, 291, 292, 293, 294, 295, 296, 297, 298, 299, 300, 301, 302, 303, 304, 305, 306, 307, 308, 309, 310, 311, 312, 313, 314, 315, 316, 317, 318, 319, 320, 321, 322, 323, 324, 325, 326, 327, 328, 329, 330],
      "LargestImagePixelValue": [2139, 2144, 2129, 2120, 2100, 2115, 2096, 2103, 2104, 2085, 2110, 2103, 2083, 2099, 2112, 2077, 2101, 2154, 2128, 2115, 2131, 2095, 2124, 2131, 2125, 2122, 2117, 2081, 2079, 2103, 2090, 2128, 2087, 2116, 2120, 2123, 2135, 2130, 2115, 2115, 2078, 2067, 2089, 2068, 2074, 2113, 2087, 2108, 2106, 2086, 2117, 2064, 2024, 2024, 2036, 2098, 2064, 2049, 2007, 2065, 2052, 2044, 2049, 2053, 2065, 2048, 2043, 2029, 2045, 2056, 2072, 2058, 2074, 2047, 2079, 2064, 2060, 2066, 2031, 2104, 2142, 2068, 2071, 2096, 2102, 2092, 2078, 2076, 2054, 2066, 2067, 2055, 2068, 2052, 2050, 2080, 2047, 2075, 2080, 2063, 2068, 2097, 2073, 2058, 2027, 2051, 2066, 2050, 2078, 2064, 2032, 2036, 2040, 2056, 2049, 2004, 2031, 2007, 2023, 2023, 2040, 2098, 2051, 2046, 2059, 2050, 2068, 2030, 2069, 2043, 2096, 2055, 1989, 2007, 1993, 1989, 2041, 1977, 1953, 1935, 1986, 2045, 2009, 2036, 2030, 1986, 2022, 2013, 1996, 1977, 1954, 1979, 1980, 2023, 2002, 2003, 1976, 1977, 1962, 1985, 1982, 2011, 2018, 2007, 2069, 1991, 1942, 1965, 1948, 1939, 1958, 1942, 1926, 1938, 1928, 1967, 1945, 1993, 1951, 1923, 1936, 1971, 1996, 1969, 1930, 1922, 1966, 1947, 1907, 1931, 1919, 1924, 2007, 1924, 1924, 1949, 1941, 1932, 1940, 1934, 2003, 2080, 2044, 2075, 1993, 2016, 2023, 2013, 1975, 2026, 2030, 2041, 2021, 1968, 1988, 1979, 1970, 1984, 2000, 2005, 2000, 2029, 1979, 2009, 1966, 1973, 1982, 1978, 2003, 1975, 1918, 1985, 1973, 2016, 2025, 2000, 1980, 2002, 2022, 2000, 2022, 2013, 1984, 2014, 1989, 2007, 2015, 2011, 2042, 2034, 2007, 1998, 1961, 2097, 2016, 2002, 1968, 1982, 2009, 2051, 1996, 1964, 1997, 2031, 2048, 2049, 2041, 2028, 2046, 2049, 2062, 2046, 2043, 1964, 1993, 1995, 2000, 2025, 2044, 2029, 2009, 2019, 2004, 2002, 2018, 2022, 2038, 2006, 1986, 1954, 1971, 1962, 1961, 1975, 2016, 2008, 1977, 1953, 1964, 1973, 1953, 2001, 1997, 2005, 2006, 2021, 1976, 2000, 2024, 1996, 2030, 1985, 2003, 1995, 2007, 2000, 1997, 1946, 2022, 1956, 2010, 1991, 1985, 1977, 1993, 1977, 1964, 1979, 1972, 1973],
      "WindowCenter": [418.0, 418.0, 418.0, 417.0, 416.0, 415.0, 414.0, 413.0, 413.0, 412.0, 413.0, 413.0, 413.0, 415.0, 417.0, 417.0, 417.0, 418.0, 417.0, 418.0, 419.0, 419.0, 419.0, 418.0, 417.0, 416.0, 415.0, 414.0, 414.0, 414.0, 414.0, 414.0, 414.0, 414.0, 415.0, 418.0, 418.0, 418.0, 418.0, 416.0, 415.0, 416.0, 417.0, 417.0, 417.0, 417.0, 416.0, 416.0, 416.0, 416.0, 417.0, 416.0, 416.0, 417.0, 417.0, 416.0, 415.0, 414.0, 413.0, 413.0, 413.0, 413.0, 412.0, 413.0, 412.0, 412.0, 411.0, 412.0, 412.0, 413.0, 413.0, 415.0, 416.0, 416.0, 416.0, 416.0, 415.0, 414.0, 415.0, 416.0, 418.0, 417.0, 417.0, 417.0, 416.0, 416.0, 416.0, 416.0, 416.0, 416.0, 416.0, 415.0, 415.0, 414.0, 414.0, 415.0, 414.0, 416.0, 416.0, 416.0, 415.0, 415.0, 415.0, 414.0, 414.0, 416.0, 416.0, 416.0, 416.0, 416.0, 414.0, 414.0, 413.0, 413.0, 412.0, 412.0, 414.0, 415.0, 416.0, 416.0, 416.0, 416.0, 415.0, 414.0, 414.0, 415.0, 414.0, 414.0, 415.0, 416.0, 418.0, 418.0, 418.0, 418.0, 417.0, 416.0, 417.0, 417.0, 417.0, 417.0, 416.0, 416.0, 415.0, 414.0, 414.0, 412.0, 413.0, 413.0, 413.0, 414.0, 415.0, 417.0, 417.0, 417.0, 416.0, 415.0, 414.0, 413.0, 413.0, 413.0, 413.0, 413.0, 413.0, 413.0, 413.0, 415.0, 415.0, 415.0, 415.0, 414.0, 414.0, 413.0, 413.0, 413.0, 414.0, 417.0, 418.0, 419.0, 419.0, 417.0, 417.0, 417.0, 418.0, 417.0, 416.0, 416.0, 415.0, 415.0, 414.0, 415.0, 414.0, 414.0, 415.0, 414.0, 413.0, 413.0, 413.0, 413.0, 412.0, 412.0, 413.0, 414.0, 417.0, 417.0, 416.0, 416.0, 415.0, 414.0, 413.0, 414.0, 415.0, 416.0, 416.0, 417.0, 417.0, 417.0, 417.0, 417.0, 416.0, 415.0, 414.0, 413.0, 411.0, 412.0, 412.0, 413.0, 414.0, 413.0, 413.0, 412.0, 410.0, 412.0, 412.0, 414.0, 414.0, 414.0, 415.0, 415.0, 415.0, 414.0, 414.0, 414.0, 413.0, 414.0, 414.0, 414.0, 414.0, 414.0, 414.0, 414.0, 413.0, 414.0, 415.0, 417.0, 420.0, 420.0, 418.0, 417.0, 415.0, 415.0, 414.0, 413.0, 414.0, 416.0, 416.0, 416.0, 416.0, 416.0, 415.0, 415.0, 414.0, 414.0, 414.0, 414.0, 416.0, 416.0, 416.0, 416.0, 415.0, 415.0, 414.0, 415.0, 414.0, 415.0, 415.0, 415.0, 415.0, 415.0, 415.0, 415.0, 416.0, 416.0, 416.0, 416.0, 416.0, 416.0, 416.0, 416.0, 416.0, 418.0, 418.0, 418.0, 417.0, 416.0, 415.0, 415.0, 414.0, 415.0, 415.0, 414.0, 414.0, 414.0, 414.0, 415.0, 415.0, 415.0, 415.0, 414.0, 416.0, 415.0, 416.0, 415.0, 415.0, 415.0, 415.0, 414.0, 414.0, 413.0, 413.0, 413.0],
