{
  "AcquisitionMatrixPE": 104,
  "AcquisitionNumber": 1,
  "AcquisitionTime": "12:31:23.597500",
  "BandwidthPerPixelPhaseEncode": 43.054,
  "BaseResolution": 104,
  "CoilString": "C:E1_2",
  "ConversionSoftware": "dcm2niix",
  "ConversionSoftwareVersion": "v1.0.20191031",
  "DerivedVendorReportedEchoSpacing": 0.000669999,
  "DeviceSerialNumber": "18932",
  "DwellTime": 2.8e-06,
  "EchoTime": 0.02,
  "EffectiveEchoSpacing": 0.000223333,
  "FlipAngle": 30,
  "ImageComments": "Unaliased_MB2_PE2",
  "ImageOrientationPatientDICOM": [1, 0, 0, 0, 0.981627, -0.190809],
  "ImageType": [
    "ORIGINAL",
    "PRIMARY",
    "M",
    "MB",
    "ND",
    "MOSAIC"
],
  "ImagingFrequency": 297.229,
  "InPlanePhaseEncodingDirectionDICOM": "COL",
  "InstitutionAddress": "Richmond_Street_North_1151_London_409EF2_Ontario_CA_N6A_5B7",
  "InstitutionName": "Robarts_Reserch_Institute",
  "InstitutionalDepartmentName": "Department",
  "MRAcquisitionType": "2D",
  "MagneticFieldStrength": 6.98,
  "Manufacturer": "Siemens",
  "ManufacturersModelName": "Investigational_Device_7T",
  "Modality": "MR",
  "MultibandAccelerationFactor": 2,
  "ParallelReductionFactorInPlane": 3,
  "PartialFourier": 0.875,
  "PatientPosition": "HFS",
  "PercentPhaseFOV": 100,
  "PhaseEncodingDirection": "j-",
  "PhaseEncodingSteps": 91,
  "PhaseResolution": 1,
  "PixelBandwidth": 1717,
  "ProcedureStepDescription": "Diedrichsen_SeqRep4",
  "ProtocolName": "mbep2d_bold_mb2_p3_AP_2iso",
  "PulseSequenceDetails": "%CustomerSeq%_cmrr_mbep2d_bold",
  "ReceiveCoilName": "CFMM_8Tx32Rx",
  "ReconMatrixPE": 104,
  "RefLinesPE": 36,
  "RepetitionTime": 1,
  "ScanOptions": "PFP_FS",
  "ScanningSequence": "EP",
  "SequenceName": "epfid2d1_104",
  "SequenceVariant": "SK_SS",
  "SeriesDescription": "mbep2d_bold_mb2_p3_AP_2iso",
  "SeriesNumber": 32,
  "ShimSetting": [25, 2065, 4, 1582, -21, -142, 282, -97],
  "SliceThickness": 2,
  "SliceTiming": [0, 0.23, 0.4575, 0.685, 0.9125, 0.1375, 0.365, 0.5925, 0.8225, 0.0475, 0.275, 0.5025, 0.73, 0.9575, 0.1825, 0.41, 0.64, 0.8675, 0.0925, 0.32, 0.5475, 0.775, 0, 0.23, 0.4575, 0.685, 0.9125, 0.1375, 0.365, 0.5925, 0.8225, 0.0475, 0.275, 0.5025, 0.73, 0.9575, 0.1825, 0.41, 0.64, 0.8675, 0.0925, 0.32, 0.5475, 0.775],
  "SoftwareVersions": "syngo_MR_B17",
  "SpacingBetweenSlices": 2,
  "StationName": "MASTER",
  "TaskName": "dsp",
  "TotalReadoutTime": 0.0230033,
  "TxRefAmp": 120,
  "dcmmeta_affine": [
    [-2.0, 0.0, 0.0, 105.4527816772461],
    [0.0, 1.9632543325424194, -0.3816179633140564, -114.44151306152344],
    [0.0, 0.3816179633140564, 1.9632543325424194, -53.73161315917969],
    [0.0, 0.0, 0.0, 1.0]
],
  "dcmmeta_reorient_transform": [
    [0.0, -1.0, 0.0, 103.0],
    [1.0, 0.0, 0.0, 0.0],
    [0.0, 0.0, 1.0, 0.0],
    [0.0, 0.0, 0.0, 1.0]
],
  "dcmmeta_shape": [104, 104, 44, 330],
  "dcmmeta_slice_dim": 2,
  "dcmmeta_version": 0.6,
  "global": {
    "const": {
      "AcquisitionMatrix": [104, 0, 0, 104],
      "AngioFlag": "N",
      "BitsAllocated": 16,
      "BitsStored": 12,
      "Columns": 728,
      "EchoNumbers": 1,
      "EchoTime": 20.0,
      "EchoTrainLength": 1,
      "FlipAngle": 30.0,
      "HighBit": 11,
      "ImageOrientationPatient": [1.0, 0.0, 0.0, 0.0, 0.98162718523795, -0.1908089861663],
      "ImagePositionPatient": [-729.45278453827, -700.30904958583, 104.63984555457],
      "ImageType": [
        "ORIGINAL",
        "PRIMARY",
        "M",
        "MB",
        "ND",
        "MOSAIC"
],
      "ImagedNucleus": "1H",
      "ImagingFrequency": 297.228804,
      "InPlanePhaseEncodingDirection": "COL",
      "MRAcquisitionType": "2D",
      "MagneticFieldStrength": 6.98,
      "Manufacturer": "SIEMENS",
      "ManufacturerModelName": "Investigational_Device_7T",
      "Modality": "MR",
      "NumberOfAverages": 1.0,
      "NumberOfPhaseEncodingSteps": 91,
      "PercentPhaseFieldOfView": 100.0,
      "PercentSampling": 100.0,
      "PerformedProcedureStepStartTime": "110711.390000",
      "PhotometricInterpretation": "MONOCHROME2",
      "PixelBandwidth": 1717.0,
      "PixelRepresentation": 0,
      "PixelSpacing": [2.0, 2.0],
      "ProtocolName": "mbep2d_bold_mb2_p3_AP 2iso",
      "RepetitionTime": 1000.0,
      "Rows": 728,
      "SAR": 0.0,
      "SamplesPerPixel": 1,
      "ScanOptions": [
        "PFP",
        "FS"
],
      "ScanningSequence": "EP",
      "SequenceName": "epfid2d1_104",
      "SequenceVariant": [
        "SK",
        "SS"
],
      "SeriesDescription": "mbep2d_bold_mb2_p3_AP 2iso",
      "SeriesNumber": 32,
      "SeriesTime": "123200.656000",
      "SliceLocation": -30.907942699106,
      "SliceThickness": 2.0,
      "SmallestImagePixelValue": 0,
      "SoftwareVersions": "syngo MR B17",
      "SpacingBetweenSlices": 1.9999999851176,
      "SpecificCharacterSet": "ISO_IR 100",
      "StudyID": "1",
      "StudyTime": "110711.328000",
      "TransmitCoilName": "CFMM_8Tx32Rx",
      "VariableFlipAngleFlag": "N",
      "WindowCenterWidthExplanation": "Algo1",
      "dBdt": 0.0},
    "slices": {}
  },
  "time": {
    "samples": {
      "AcquisitionNumber": [1, 2, 3, 4, 5, 6, 7, 8, 9, 10, 11, 12, 13, 14, 15, 16, 17, 18, 19, 20, 21, 22, 23, 24, 25, 26, 27, 28, 29, 30, 31, 32, 33, 34, 35, 36, 37, 38, 39, 40, 41, 42, 43, 44, 45, 46, 47, 48, 49, 50, 51, 52, 53, 54, 55, 56, 57, 58, 59, 60, 61, 62, 63, 64, 65, 66, 67, 68, 69, 70, 71, 72, 73, 74, 75, 76, 77, 78, 79, 80, 81, 82, 83, 84, 85, 86, 87, 88, 89, 90, 91, 92, 93, 94, 95, 96, 97, 98, 99, 100, 101, 102, 103, 104, 105, 106, 107, 108, 109, 110, 111, 112, 113, 114, 115, 116, 117, 118, 119, 120, 121, 122, 123, 124, 125, 126, 127, 128, 129, 130, 131, 132, 133, 134, 135, 136, 137, 138, 139, 140, 141, 142, 143, 144, 145, 146, 147, 148, 149, 150, 151, 152, 153, 154, 155, 156, 157, 158, 159, 160, 161, 162, 163, 164, 165, 166, 167, 168, 169, 170, 171, 172, 173, 174, 175, 176, 177, 178, 179, 180, 181, 182, 183, 184, 185, 186, 187, 188, 189, 190, 191, 192, 193, 194, 195, 196, 197, 198, 199, 200, 201, 202, 203, 204, 205, 206, 207, 208, 209, 210, 211, 212, 213, 214, 215, 216, 217, 218, 219, 220, 221, 222, 223, 224, 225, 226, 227, 228, 229, 230, 231, 232, 233, 234, 235, 236, 237, 238, 239, 240, 241, 242, 243, 244, 245, 246, 247, 248, 249, 250, 251, 252, 253, 254, 255, 256, 257, 258, 259, 260, 261, 262, 263, 264, 265, 266, 267, 268, 269, 270, 271, 272, 273, 274, 275, 276, 277, 278, 279, 280, 281, 282, 283, 284, 285, 286, 287, 288, 289, 290, 291, 292, 293, 294, 295, 296, 297, 298, 299, 300, 301, 302, 303, 304, 305, 306, 307, 308, 309, 310, 311, 312, 313, 314, 315, 316, 317, 318, 319, 320, 321, 322, 323, 324, 325, 326, 327, 328, 329, 330],
      "AcquisitionTime": ["123123.597500", "123124.602500", "123125.605000", "123126.610000", "123127.615000", "123128.617500", "123129.622500", "123130.627500", "123131.630000", "123132.635000", "123133.637500", "123134.642500", "123135.647500", "123136.650000", "123137.655000", "123138.657500", "123139.662500", "123140.667500", "123141.670000", "123142.675000", "123143.677500", "123144.682500", "123145.687500", "123146.690000", "123147.695000", "123148.697500", "123149.702500", "123150.707500", "123151.710000", "123152.715000", "123153.717500", "123154.722500", "123155.727500", "123156.730000", "123157.735000", "123158.740000", "123159.742500", "123200.747500", "123201.750000", "123202.755000", "123203.760000", "123204.762500", "123205.767500", "123206.770000", "123207.775000", "123208.780000", "123209.782500", "123210.787500", "123211.790000", "123212.795000", "123213.800000", "123214.802500", "123215.807500", "123216.810000", "123217.815000", "123218.820000", "123219.822500", "123220.827500", "123221.830000", "123222.835000", "123223.840000", "123224.842500", "123225.847500", "123226.850000", "123227.855000", "123228.860000", "123229.862500", "123230.867500", "123231.872500", "123232.875000", "123233.880000", "123234.882500", "123235.887500", "123236.892500", "123237.895000", "123238.900000", "123239.902500", "123240.907500", "123241.912500", "123242.915000", "123243.920000", "123244.922500", "123245.927500", "123246.932500", "123247.935000", "123248.940000", "123249.942500", "123250.947500", "123251.952500", "123252.955000", "123253.960000", "123254.962500", "123255.967500", "123256.972500", "123257.975000", "123258.980000", "123259.982500", "123300.987500", "123301.992500", "123302.995000", "123304.000000", "123305.005000", "123306.007500", "123307.012500", "123308.015000", "123309.020000", "123310.025000", "123311.027500", "123312.032500", "123313.035000", "123314.040000", "123315.045000", "123316.047500", "123317.052500", "123318.055000", "123319.060000", "123320.065000", "123321.067500", "123322.072500", "123323.075000", "123324.080000", "123325.085000", "123326.087500", "123327.092500", "123328.095000", "123329.100000", "123330.105000", "123331.107500", "123332.112500", "123333.117500", "123334.120000", "123335.125000", "123336.127500", "123337.132500", "123338.137500", "123339.140000", "123340.145000", "123341.147500", "123342.152500", "123343.157500", "123344.160000", "123345.165000", "123346.167500", "123347.172500", "123348.177500", "123349.180000", "123350.185000", "123351.187500", "123352.192500", "123353.197500", "123354.200000", "123355.205000", "123356.207500", "123357.212500", "123358.217500", "123359.220000", "123400.225000", "123401.227500", "123402.232500", "123403.237500", "123404.240000", "123405.245000", "123406.250000", "123407.252500", "123408.257500", "123409.260000", "123410.265000", "123411.270000", "123412.272500", "123413.277500", "123414.280000", "123415.285000", "123416.290000", "123417.292500", "123418.297500", "123419.300000", "123420.305000", "123421.310000", "123422.312500", "123423.317500", "123424.320000", "123425.325000", "123426.330000", "123427.332500", "123428.337500", "123429.340000", "123430.345000", "123431.350000", "123432.352500", "123433.357500", "123434.362500", "123435.365000", "123436.370000", "123437.372500", "123438.377500", "123439.382500", "123440.385000", "123441.390000", "123442.392500", "123443.397500", "123444.402500", "123445.405000", "123446.410000", "123447.412500", "123448.417500", "123449.422500", "123450.425000", "123451.430000", "123452.432500", "123453.437500", "123454.442500", "123455.445000", "123456.450000", "123457.452500", "123458.457500", "123459.462500", "123500.465000", "123501.470000", "123502.472500", "123503.477500", "123504.482500", "123505.485000", "123506.490000", "123507.495000", "123508.497500", "123509.502500", "123510.505000", "123511.510000", "123512.515000", "123513.517500", "123514.522500", "123515.525000", "123516.530000", "123517.535000", "123518.537500", "123519.542500", "123520.545000", "123521.550000", "123522.555000", "123523.557500", "123524.562500", "123525.565000", "123526.570000", "123527.575000", "123528.577500", "123529.582500", "123530.585000", "123531.590000", "123532.595000", "123533.597500", "123534.602500", "123535.605000", "123536.610000", "123537.615000", "123538.617500", "123539.622500", "123540.627500", "123541.630000", "123542.635000", "123543.637500", "123544.642500", "123545.647500", "123546.650000", "123547.655000", "123548.657500", "123549.662500", "123550.667500", "123551.670000", "123552.675000", "123553.677500", "123554.682500", "123555.687500", "123556.690000", "123557.695000", "123558.697500", "123559.702500", "123600.707500", "123601.710000", "123602.715000", "123603.717500", "123604.722500", "123605.727500", "123606.730000", "123607.735000", "123608.740000", "123609.742500", "123610.747500", "123611.750000", "123612.755000", "123613.760000", "123614.762500", "123615.767500", "123616.770000", "123617.775000", "123618.780000", "123619.782500", "123620.787500", "123621.790000", "123622.795000", "123623.800000", "123624.802500", "123625.807500", "123626.810000", "123627.815000", "123628.820000", "123629.822500", "123630.827500", "123631.830000", "123632.835000", "123633.840000", "123634.842500", "123635.847500", "123636.850000", "123637.855000", "123638.860000", "123639.862500", "123640.867500", "123641.872500", "123642.875000", "123643.880000", "123644.882500", "123645.887500", "123646.892500", "123647.895000", "123648.900000", "123649.902500", "123650.907500", "123651.912500", "123652.915000", "123653.920000"],
      "ContentTime": ["123200.671000", "123200.671000", "123200.671000", "123200.671000", "123200.671000", "123200.671000", "123200.687000", "123200.687000", "123200.687000", "123200.687000", "123200.687000", "123200.687000", "123200.687000", "123200.703000", "123200.703000", "123200.703000", "123200.703000", "123200.703000", "123200.718000", "123200.718000", "123200.718000", "123200.718000", "123200.734000", "123200.734000", "123200.734000", "123200.734000", "123200.734000", "123200.734000", "123200.734000", "123200.750000", "123200.750000", "123200.750000", "123200.750000", "123200.750000", "123200.750000", "123200.750000", "123220.609000", "123220.625000", "123220.625000", "123220.625000", "123220.625000", "123220.625000", "123220.640000", "123220.640000", "123220.640000", "123220.640000", "123220.640000", "123220.640000", "123220.656000", "123220.656000", "123220.656000", "123220.656000", "123220.656000", "123220.671000", "123220.671000", "123220.671000", "123240.609000", "123240.625000", "123240.625000", "123240.625000", "123240.625000", "123240.625000", "123240.625000", "123240.640000", "123240.640000", "123240.640000", "123240.640000", "123240.640000", "123240.640000", "123240.640000", "123240.656000", "123240.656000", "123240.656000", "123240.656000", "123240.656000", "123240.656000", "123300.609000", "123300.625000", "123300.625000", "123300.625000", "123300.625000", "123300.625000", "123300.640000", "123300.640000", "123300.640000", "123300.640000", "123300.640000", "123300.640000", "123300.640000", "123300.656000", "123300.656000", "123300.656000", "123300.656000", "123300.656000", "123300.656000", "123300.656000", "123320.609000", "123320.625000", "123320.625000", "123320.625000", "123320.625000", "123320.625000", "123320.625000", "123320.625000", "123320.640000", "123320.640000", "123320.640000", "123320.640000", "123320.640000", "123320.640000", "123320.656000", "123320.656000", "123320.671000", "123320.671000", "123320.671000", "123320.671000", "123340.609000", "123340.625000", "123340.625000", "123340.625000", "123340.625000", "123340.640000", "123340.640000", "123340.640000", "123340.640000", "123340.640000", "123340.640000", "123340.640000", "123340.656000", "123340.656000", "123340.656000", "123340.656000", "123340.656000", "123340.656000", "123340.656000", "123340.671000", "123400.609000", "123400.625000", "123400.625000", "123400.625000", "123400.625000", "123400.625000", "123400.625000", "123400.625000", "123400.640000", "123400.640000", "123400.640000", "123400.640000", "123400.640000", "123400.640000", "123400.640000", "123400.656000", "123400.656000", "123400.656000", "123400.656000", "123400.656000", "123420.609000", "123420.625000", "123420.625000", "123420.625000", "123420.625000", "123420.625000", "123420.625000", "123420.640000", "123420.640000", "123420.640000", "123420.640000", "123420.640000", "123420.640000", "123420.640000", "123420.656000", "123420.656000", "123420.656000", "123420.656000", "123420.656000", "123420.656000", "123440.609000", "123440.625000", "123440.625000", "123440.625000", "123440.625000", "123440.625000", "123440.625000", "123440.640000", "123440.640000", "123440.640000", "123440.640000", "123440.640000", "123440.640000", "123440.640000", "123440.656000", "123440.656000", "123440.656000", "123440.656000", "123440.656000", "123440.656000", "123500.609000", "123500.625000", "123500.625000", "123500.625000", "123500.625000", "123500.625000", "123500.640000", "123500.640000", "123500.640000", "123500.640000", "123500.640000", "123500.656000", "123500.656000", "123500.656000", "123500.656000", "123500.656000", "123500.671000", "123500.671000", "123500.671000", "123500.671000", "123520.609000", "123520.625000", "123520.625000", "123520.625000", "123520.625000", "123520.625000", "123520.625000", "123520.625000", "123520.640000", "123520.640000", "123520.640000", "123520.640000", "123520.640000", "123520.640000", "123520.640000", "123520.656000", "123520.656000", "123520.656000", "123520.656000", "123520.656000", "123540.609000", "123540.625000", "123540.625000", "123540.625000", "123540.625000", "123540.625000", "123540.625000", "123540.625000", "123540.640000", "123540.640000", "123540.640000", "123540.640000", "123540.640000", "123540.640000", "123540.640000", "123540.656000", "123540.656000", "123540.656000", "123540.656000", "123540.656000", "123600.609000", "123600.625000", "123600.625000", "123600.625000", "123600.625000", "123600.625000", "123600.625000", "123600.625000", "123600.640000", "123600.640000", "123600.640000", "123600.640000", "123600.640000", "123600.640000", "123600.640000", "123600.656000", "123600.656000", "123600.656000", "123600.656000", "123600.656000", "123620.609000", "123620.625000", "123620.625000", "123620.625000", "123620.625000", "123620.625000", "123620.625000", "123620.625000", "123620.640000", "123620.640000", "123620.640000", "123620.640000", "123620.640000", "123620.640000", "123620.640000", "123620.656000", "123620.656000", "123620.656000", "123620.656000", "123620.656000", "123640.609000", "123640.625000", "123640.625000", "123640.625000", "123640.625000", "123640.625000", "123640.625000", "123640.625000", "123640.640000", "123640.640000", "123640.640000", "123640.640000", "123640.640000", "123640.640000", "123640.640000", "123640.656000", "123640.656000", "123640.656000", "123640.656000", "123640.656000", "123659.500000", "123659.500000", "123659.500000", "123659.500000", "123659.500000", "123659.500000", "123659.515000", "123659.515000", "123659.515000", "123659.515000", "123659.515000", "123659.531000", "123659.531000", "123659.531000"],
      "InstanceCreationTime": ["123200.671000", "123200.671000", "123200.671000", "123200.671000", "123200.671000", "123200.671000", "123200.687000", "123200.687000", "123200.687000", "123200.687000", "123200.687000", "123200.687000", "123200.687000", "123200.703000", "123200.703000", "123200.703000", "123200.703000", "123200.703000", "123200.718000", "123200.718000", "123200.718000", "123200.718000", "123200.734000", "123200.734000", "123200.734000", "123200.734000", "123200.734000", "123200.734000", "123200.734000", "123200.750000", "123200.750000", "123200.750000", "123200.750000", "123200.750000", "123200.750000", "123200.750000", "123220.609000", "123220.625000", "123220.625000", "123220.625000", "123220.625000", "123220.625000", "123220.640000", "123220.640000", "123220.640000", "123220.640000", "123220.640000", "123220.640000", "123220.656000", "123220.656000", "123220.656000", "123220.656000", "123220.656000", "123220.671000", "123220.671000", "123220.671000", "123240.609000", "123240.625000", "123240.625000", "123240.625000", "123240.625000", "123240.625000", "123240.625000", "123240.640000", "123240.640000", "123240.640000", "123240.640000", "123240.640000", "123240.640000", "123240.640000", "123240.656000", "123240.656000", "123240.656000", "123240.656000", "123240.656000", "123240.656000", "123300.609000", "123300.625000", "123300.625000", "123300.625000", "123300.625000", "123300.625000", "123300.640000", "123300.640000", "123300.640000", "123300.640000", "123300.640000", "123300.640000", "123300.640000", "123300.656000", "123300.656000", "123300.656000", "123300.656000", "123300.656000", "123300.656000", "123300.656000", "123320.609000", "123320.625000", "123320.625000", "123320.625000", "123320.625000", "123320.625000", "123320.625000", "123320.625000", "123320.640000", "123320.640000", "123320.640000", "123320.640000", "123320.640000", "123320.640000", "123320.656000", "123320.656000", "123320.671000", "123320.671000", "123320.671000", "123320.671000", "123340.609000", "123340.625000", "123340.625000", "123340.625000", "123340.625000", "123340.640000", "123340.640000", "123340.640000", "123340.640000", "123340.640000", "123340.640000", "123340.640000", "123340.656000", "123340.656000", "123340.656000", "123340.656000", "123340.656000", "123340.656000", "123340.656000", "123340.671000", "123400.609000", "123400.625000", "123400.625000", "123400.625000", "123400.625000", "123400.625000", "123400.625000", "123400.625000", "123400.640000", "123400.640000", "123400.640000", "123400.640000", "123400.640000", "123400.640000", "123400.640000", "123400.656000", "123400.656000", "123400.656000", "123400.656000", "123400.656000", "123420.609000", "123420.625000", "123420.625000", "123420.625000", "123420.625000", "123420.625000", "123420.625000", "123420.640000", "123420.640000", "123420.640000", "123420.640000", "123420.640000", "123420.640000", "123420.640000", "123420.656000", "123420.656000", "123420.656000", "123420.656000", "123420.656000", "123420.656000", "123440.609000", "123440.625000", "123440.625000", "123440.625000", "123440.625000", "123440.625000", "123440.625000", "123440.640000", "123440.640000", "123440.640000", "123440.640000", "123440.640000", "123440.640000", "123440.640000", "123440.656000", "123440.656000", "123440.656000", "123440.656000", "123440.656000", "123440.656000", "123500.609000", "123500.625000", "123500.625000", "123500.625000", "123500.625000", "123500.625000", "123500.640000", "123500.640000", "123500.640000", "123500.640000", "123500.640000", "123500.656000", "123500.656000", "123500.656000", "123500.656000", "123500.656000", "123500.671000", "123500.671000", "123500.671000", "123500.671000", "123520.609000", "123520.625000", "123520.625000", "123520.625000", "123520.625000", "123520.625000", "123520.625000", "123520.625000", "123520.640000", "123520.640000", "123520.640000", "123520.640000", "123520.640000", "123520.640000", "123520.640000", "123520.656000", "123520.656000", "123520.656000", "123520.656000", "123520.656000", "123540.609000", "123540.625000", "123540.625000", "123540.625000", "123540.625000", "123540.625000", "123540.625000", "123540.625000", "123540.640000", "123540.640000", "123540.640000", "123540.640000", "123540.640000", "123540.640000", "123540.640000", "123540.656000", "123540.656000", "123540.656000", "123540.656000", "123540.656000", "123600.609000", "123600.625000", "123600.625000", "123600.625000", "123600.625000", "123600.625000", "123600.625000", "123600.625000", "123600.640000", "123600.640000", "123600.640000", "123600.640000", "123600.640000", "123600.640000", "123600.640000", "123600.656000", "123600.656000", "123600.656000", "123600.656000", "123600.656000", "123620.609000", "123620.625000", "123620.625000", "123620.625000", "123620.625000", "123620.625000", "123620.625000", "123620.625000", "123620.640000", "123620.640000", "123620.640000", "123620.640000", "123620.640000", "123620.640000", "123620.640000", "123620.656000", "123620.656000", "123620.656000", "123620.656000", "123620.656000", "123640.609000", "123640.625000", "123640.625000", "123640.625000", "123640.625000", "123640.625000", "123640.625000", "123640.625000", "123640.640000", "123640.640000", "123640.640000", "123640.640000", "123640.640000", "123640.640000", "123640.640000", "123640.656000", "123640.656000", "123640.656000", "123640.656000", "123640.656000", "123659.500000", "123659.500000", "123659.500000", "123659.500000", "123659.500000", "123659.500000", "123659.515000", "123659.515000", "123659.515000", "123659.515000", "123659.515000", "123659.531000", "123659.531000", "123659.531000"],
      "InstanceNumber": [1, 2, 3, 4, 5, 6, 7, 8, 9, 10, 11, 12, 13, 14, 15, 16, 17, 18, 19, 20, 21, 22, 23, 24, 25, 26, 27, 28, 29, 30, 31, 32, 33, 34, 35, 36, 37, 38, 39, 40, 41, 42, 43, 44, 45, 46, 47, 48, 49, 50, 51, 52, 53, 54, 55, 56, 57, 58, 59, 60, 61, 62, 63, 64, 65, 66, 67, 68, 69, 70, 71, 72, 73, 74, 75, 76, 77, 78, 79, 80, 81, 82, 83, 84, 85, 86, 87, 88, 89, 90, 91, 92, 93, 94, 95, 96, 97, 98, 99, 100, 101, 102, 103, 104, 105, 106, 107, 108, 109, 110, 111, 112, 113, 114, 115, 116, 117, 118, 119, 120, 121, 122, 123, 124, 125, 126, 127, 128, 129, 130, 131, 132, 133, 134, 135, 136, 137, 138, 139, 140, 141, 142, 143, 144, 145, 146, 147, 148, 149, 150, 151, 152, 153, 154, 155, 156, 157, 158, 159, 160, 161, 162, 163, 164, 165, 166, 167, 168, 169, 170, 171, 172, 173, 174, 175, 176, 177, 178, 179, 180, 181, 182, 183, 184, 185, 186, 187, 188, 189, 190, 191, 192, 193, 194, 195, 196, 197, 198, 199, 200, 201, 202, 203, 204, 205, 206, 207, 208, 209, 210, 211, 212, 213, 214, 215, 216, 217, 218, 219, 220, 221, 222, 223, 224, 225, 226, 227, 228, 229, 230, 231, 232, 233, 234, 235, 236, 237, 238, 239, 240, 241, 242, 243, 244, 245, 246, 247, 248, 249, 250, 251, 252, 253, 254, 255, 256, 257, 258, 259, 260, 261, 262, 263, 264, 265, 266, 267, 268, 269, 270, 271, 272, 273, 274, 275, 276, 277, 278, 279, 280, 281, 282, 283, 284, 285, 286, 287, 288, 289, 290, 291, 292, 293, 294, 295, 296, 297, 298, 299, 300, 301, 302, 303, 304, 305, 306, 307, 308, 309, 310, 311, 312, 313, 314, 315, 316, 317, 318, 319, 320, 321, 322, 323, 324, 325, 326, 327, 328, 329, 330],
      "LargestImagePixelValue": [1880, 1868, 1888, 1866, 1838, 1827, 1864, 1885, 1852, 1857, 1835, 1884, 1867, 1824, 1846, 1851, 1922, 1934, 1936, 1896, 1893, 1891, 1876, 1895, 1886, 1875, 1909, 1845, 1869, 1879, 1893, 1912, 1974, 1923, 1924, 1941, 1903, 1970, 1883, 1859, 1887, 1955, 1943, 1977, 1902, 1921, 1968, 1943, 1882, 1883, 1905, 1895, 1880, 1833, 1883, 1884, 1910, 1966, 1976, 1979, 1939, 1991, 1938, 1900, 1925, 1968, 1979, 1934, 1940, 1963, 2053, 2027, 2003, 2030, 1949, 1949, 2032, 1957, 1923, 1919, 1948, 1980, 1979, 1968, 1947, 1944, 1954, 1935, 1935, 1945, 1998, 2006, 2066, 2052, 2032, 2036, 2022, 2049, 1954, 1972, 2008, 2014, 2053, 2030, 1962, 1996, 1995, 1982, 1983, 1994, 1969, 2020, 1982, 1983, 1934, 1950, 2023, 1971, 1991, 1979, 2003, 2081, 2034, 2054, 2070, 2037, 2059, 2016, 1994, 1971, 1988, 1965, 2067, 2076, 2038, 2060, 2034, 2044, 2069, 2009, 2010, 2041, 2028, 2052, 2020, 2045, 2115, 2037, 2043, 2067, 2002, 2047, 2026, 2001, 1964, 2041, 2034, 2035, 1993, 1948, 1980, 2043, 2052, 2000, 2080, 2086, 2058, 2051, 2024, 1993, 2043, 2030, 1992, 1965, 1969, 1981, 1929, 1976, 1965, 1957, 1974, 1986, 1981, 1944, 1967, 1993, 2006, 2023, 2006, 2046, 2021, 2089, 2091, 2051, 2056, 2022, 2117, 2048, 2061, 1987, 2035, 2003, 2027, 2103, 2106, 2059, 2112, 2119, 2088, 2050, 2065, 2075, 2056, 2080, 2073, 2053, 2016, 2070, 2075, 2020, 1981, 1856, 1975, 1917, 1951, 1887, 1952, 1960, 1979, 1934, 1978, 2013, 1994, 2030, 1978, 2078, 2030, 2060, 2086, 2071, 2019, 1997, 2013, 1993, 1992, 1989, 2022, 2069, 2033, 2025, 2032, 2091, 2077, 2089, 2094, 2114, 2064, 2100, 2066, 2003, 2069, 2069, 2097, 2016, 1996, 2039, 2072, 2060, 2020, 1968, 1993, 1990, 2058, 1997, 2012, 2023, 2029, 2058, 2044, 2087, 2088, 2102, 2020, 2073, 2091, 2083, 2085, 2050, 2055, 2025, 2038, 2034, 2012, 2046, 2052, 2047, 2090, 2123, 2079, 2061, 2066, 2042, 2001, 2068, 2055, 2100, 2102, 2092, 2062, 2079, 2108, 2030, 2054, 2047, 1993, 2058, 2066, 2033, 2046, 2094, 2084, 2095, 2103, 2019, 1986, 2076, 2008, 2070, 2065, 2015],
      "WindowCenter": [408.0, 407.0, 407.0, 408.0, 408.0, 408.0, 408.0, 408.0, 407.0, 407.0, 407.0, 407.0, 407.0, 407.0, 408.0, 409.0, 409.0, 410.0, 410.0, 409.0, 409.0, 410.0, 410.0, 410.0, 409.0, 409.0, 409.0, 407.0, 408.0, 408.0, 409.0, 410.0, 412.0, 411.0, 410.0, 409.0, 409.0, 409.0, 408.0, 407.0, 407.0, 409.0, 410.0, 411.0, 410.0, 409.0, 409.0, 409.0, 409.0, 409.0, 409.0, 408.0, 408.0, 407.0, 407.0, 408.0, 410.0, 410.0, 411.0, 410.0, 409.0, 409.0, 408.0, 408.0, 408.0, 408.0, 408.0, 408.0, 409.0, 410.0, 412.0, 412.0, 411.0, 412.0, 410.0, 409.0, 410.0, 408.0, 408.0, 408.0, 409.0, 410.0, 410.0, 409.0, 409.0, 409.0, 409.0, 408.0, 408.0, 409.0, 411.0, 412.0, 413.0, 413.0, 412.0, 411.0, 411.0, 410.0, 409.0, 409.0, 409.0, 409.0, 410.0, 410.0, 409.0, 409.0, 409.0, 409.0, 409.0, 409.0, 409.0, 411.0, 410.0, 410.0, 410.0, 410.0, 410.0, 409.0, 411.0, 411.0, 411.0, 412.0, 411.0, 411.0, 411.0, 410.0, 410.0, 409.0, 408.0, 408.0, 407.0, 407.0, 410.0, 410.0, 411.0, 411.0, 410.0, 409.0, 409.0, 408.0, 408.0, 409.0, 410.0, 411.0, 411.0, 411.0, 411.0, 410.0, 410.0, 409.0, 408.0, 409.0, 408.0, 408.0, 407.0, 408.0, 408.0, 408.0, 408.0, 408.0, 410.0, 411.0, 412.0, 412.0, 412.0, 411.0, 411.0, 410.0, 409.0, 409.0, 410.0, 409.0, 408.0, 407.0, 406.0, 406.0, 406.0, 406.0, 407.0, 408.0, 409.0, 409.0, 409.0, 408.0, 408.0, 409.0, 409.0, 410.0, 412.0, 413.0, 412.0, 412.0, 412.0, 410.0, 410.0, 410.0, 411.0, 410.0, 409.0, 408.0, 409.0, 410.0, 411.0, 412.0, 412.0, 411.0, 411.0, 411.0, 409.0, 409.0, 409.0, 409.0, 409.0, 410.0, 410.0, 410.0, 410.0, 411.0, 410.0, 409.0, 409.0, 411.0, 413.0, 412.0, 411.0, 410.0, 411.0, 410.0, 409.0, 408.0, 408.0, 409.0, 409.0, 409.0, 409.0, 412.0, 411.0, 411.0, 411.0, 410.0, 409.0, 409.0, 409.0, 408.0, 408.0, 409.0, 409.0, 410.0, 409.0, 410.0, 410.0, 412.0, 411.0, 411.0, 412.0, 412.0, 411.0, 412.0, 412.0, 411.0, 412.0, 412.0, 412.0, 411.0, 411.0, 411.0, 411.0, 411.0, 410.0, 409.0, 409.0, 409.0, 409.0, 409.0, 410.0, 410.0, 410.0, 410.0, 410.0, 409.0, 410.0, 411.0, 411.0, 412.0, 412.0, 410.0, 410.0, 409.0, 408.0, 408.0, 408.0, 408.0, 408.0, 409.0, 410.0, 409.0, 410.0, 411.0, 410.0, 410.0, 410.0, 409.0, 408.0, 410.0, 410.0, 413.0, 412.0, 412.0, 411.0, 410.0, 409.0, 408.0, 407.0, 408.0, 408.0, 409.0, 409.0, 410.0, 410.0, 410.0, 410.0, 411.0, 410.0, 409.0, 408.0, 409.0, 409.0, 409.0, 409.0, 408.0],
