{
  "AcquisitionMatrixPE": 104,
  "AcquisitionNumber": 1,
  "AcquisitionTime": "11:06:47.532500",
  "BandwidthPerPixelPhaseEncode": 43.054,
  "BaseResolution": 104,
  "CoilString": "C:E1_2",
  "ConversionSoftware": "dcm2niix",
  "ConversionSoftwareVersion": "v1.0.20191031",
  "DerivedVendorReportedEchoSpacing": 0.000669999,
  "DeviceSerialNumber": "18932",
  "DwellTime": 2.8e-06,
  "EchoTime": 0.02,
  "EffectiveEchoSpacing": 0.000223333,
  "FlipAngle": 30,
  "ImageComments": "Unaliased_MB2_PE2",
  "ImageOrientationPatientDICOM": [1, 0, 0, 0, 0.991216, -0.132256],
  "ImageType": [
    "ORIGINAL",
    "PRIMARY",
    "M",
    "MB",
    "ND",
    "MOSAIC"
],
  "ImagingFrequency": 297.229,
  "InPlanePhaseEncodingDirectionDICOM": "COL",
  "InstitutionAddress": "Richmond_Street_North_1151_London_409EF2_Ontario_CA_N6A_5B7",
  "InstitutionName": "Robarts_Reserch_Institute",
  "InstitutionalDepartmentName": "Department",
  "MRAcquisitionType": "2D",
  "MagneticFieldStrength": 6.98,
  "Manufacturer": "Siemens",
  "ManufacturersModelName": "Investigational_Device_7T",
  "Modality": "MR",
  "MultibandAccelerationFactor": 2,
  "ParallelReductionFactorInPlane": 3,
  "PartialFourier": 0.875,
  "PatientPosition": "HFS",
  "PercentPhaseFOV": 100,
  "PhaseEncodingDirection": "j-",
  "PhaseEncodingSteps": 91,
  "PhaseResolution": 1,
  "PixelBandwidth": 1717,
  "ProcedureStepDescription": "Diedrichsen_SeqRep4",
  "ProtocolName": "mbep2d_bold_mb2_p3_AP_2iso",
  "PulseSequenceDetails": "%CustomerSeq%_cmrr_mbep2d_bold",
  "ReceiveCoilName": "CFMM_8Tx32Rx",
  "ReconMatrixPE": 104,
  "RefLinesPE": 36,
  "RepetitionTime": 1,
  "ScanOptions": "PFP_FS",
  "ScanningSequence": "EP",
  "SequenceName": "epfid2d1_104",
  "SequenceVariant": "SK_SS",
  "SeriesDescription": "mbep2d_bold_mb2_p3_AP_2iso",
  "SeriesNumber": 13,
  "ShimSetting": [13, 2083, 18, 1313, 185, 69, 53, -49],
  "SliceThickness": 2,
  "SliceTiming": [0, 0.2275, 0.455, 0.685, 0.9125, 0.1375, 0.365, 0.5925, 0.82, 0.045, 0.2725, 0.5025, 0.73, 0.9575, 0.1825, 0.41, 0.6375, 0.8675, 0.09, 0.32, 0.5475, 0.775, 0, 0.2275, 0.455, 0.685, 0.9125, 0.1375, 0.365, 0.5925, 0.82, 0.045, 0.2725, 0.5025, 0.73, 0.9575, 0.1825, 0.41, 0.6375, 0.8675, 0.09, 0.32, 0.5475, 0.775],
  "SoftwareVersions": "syngo_MR_B17",
  "SpacingBetweenSlices": 2,
  "StationName": "MASTER",
  "TaskName": "dsp",
  "TotalReadoutTime": 0.0230033,
  "TxRefAmp": 120,
  "dcmmeta_affine": [
    [-2.0, 0.0, 0.0, 105.4527816772461],
    [0.0, 1.9824310541152954, -0.2645128071308136, -100.50387573242188],
    [0.0, 0.2645128071308136, 1.9824310541152954, -20.56864356994629],
    [0.0, 0.0, 0.0, 1.0]
],
  "dcmmeta_reorient_transform": [
    [0.0, -1.0, 0.0, 103.0],
    [1.0, 0.0, 0.0, 0.0],
    [0.0, 0.0, 1.0, 0.0],
    [0.0, 0.0, 0.0, 1.0]
],
  "dcmmeta_shape": [104, 104, 44, 330],
  "dcmmeta_slice_dim": 2,
  "dcmmeta_version": 0.6,
  "global": {
    "const": {
      "AcquisitionMatrix": [104, 0, 0, 104],
      "AngioFlag": "N",
      "BitsAllocated": 16,
      "BitsStored": 12,
      "Columns": 728,
      "EchoNumbers": 1,
      "EchoTime": 20.0,
      "EchoTrainLength": 1,
      "FlipAngle": 30.0,
      "HighBit": 11,
      "ImageOrientationPatient": [1.0, 0.0, 0.0, 0.0, 0.99121553937119, -0.132256396855],
      "ImagePositionPatient": [-729.45278453827, -722.20502355071, 89.20416522268],
      "ImageType": [
        "ORIGINAL",
        "PRIMARY",
        "M",
        "MB",
        "ND",
        "MOSAIC"
],
      "ImagedNucleus": "1H",
      "ImagingFrequency": 297.228788,
      "InPlanePhaseEncodingDirection": "COL",
      "MRAcquisitionType": "2D",
      "MagneticFieldStrength": 6.98,
      "Manufacturer": "SIEMENS",
      "ManufacturerModelName": "Investigational_Device_7T",
      "Modality": "MR",
      "NumberOfAverages": 1.0,
      "NumberOfPhaseEncodingSteps": 91,
      "PercentPhaseFieldOfView": 100.0,
      "PercentSampling": 100.0,
      "PerformedProcedureStepStartTime": "104742.937000",
      "PhotometricInterpretation": "MONOCHROME2",
      "PixelBandwidth": 1717.0,
      "PixelRepresentation": 0,
      "PixelSpacing": [2.0, 2.0],
      "ProtocolName": "mbep2d_bold_mb2_p3_AP 2iso",
      "RepetitionTime": 1000.0,
      "Rows": 728,
      "SAR": 0.0,
      "SamplesPerPixel": 1,
      "ScanOptions": [
        "PFP",
        "FS"
],
      "ScanningSequence": "EP",
      "SequenceName": "epfid2d1_104",
      "SequenceVariant": [
        "SK",
        "SS"
],
      "SeriesDescription": "mbep2d_bold_mb2_p3_AP 2iso",
      "SeriesNumber": 13,
      "SeriesTime": "110709.484000",
      "SliceLocation": -7.0956794600561,
      "SliceThickness": 2.0,
      "SmallestImagePixelValue": 0,
      "SoftwareVersions": "syngo MR B17",
      "SpacingBetweenSlices": 2.000000032963,
      "SpecificCharacterSet": "ISO_IR 100",
      "StudyID": "1",
      "StudyTime": "104742.875000",
      "TransmitCoilName": "CFMM_8Tx32Rx",
      "VariableFlipAngleFlag": "N",
      "WindowCenterWidthExplanation": "Algo1",
      "dBdt": 0.0},
    "slices": {}
  },
  "time": {
    "samples": {
      "AcquisitionNumber": [1, 2, 3, 4, 5, 6, 7, 8, 9, 10, 11, 12, 13, 14, 15, 16, 17, 18, 19, 20, 21, 22, 23, 24, 25, 26, 27, 28, 29, 30, 31, 32, 33, 34, 35, 36, 37, 38, 39, 40, 41, 42, 43, 44, 45, 46, 47, 48, 49, 50, 51, 52, 53, 54, 55, 56, 57, 58, 59, 60, 61, 62, 63, 64, 65, 66, 67, 68, 69, 70, 71, 72, 73, 74, 75, 76, 77, 78, 79, 80, 81, 82, 83, 84, 85, 86, 87, 88, 89, 90, 91, 92, 93, 94, 95, 96, 97, 98, 99, 100, 101, 102, 103, 104, 105, 106, 107, 108, 109, 110, 111, 112, 113, 114, 115, 116, 117, 118, 119, 120, 121, 122, 123, 124, 125, 126, 127, 128, 129, 130, 131, 132, 133, 134, 135, 136, 137, 138, 139, 140, 141, 142, 143, 144, 145, 146, 147, 148, 149, 150, 151, 152, 153, 154, 155, 156, 157, 158, 159, 160, 161, 162, 163, 164, 165, 166, 167, 168, 169, 170, 171, 172, 173, 174, 175, 176, 177, 178, 179, 180, 181, 182, 183, 184, 185, 186, 187, 188, 189, 190, 191, 192, 193, 194, 195, 196, 197, 198, 199, 200, 201, 202, 203, 204, 205, 206, 207, 208, 209, 210, 211, 212, 213, 214, 215, 216, 217, 218, 219, 220, 221, 222, 223, 224, 225, 226, 227, 228, 229, 230, 231, 232, 233, 234, 235, 236, 237, 238, 239, 240, 241, 242, 243, 244, 245, 246, 247, 248, 249, 250, 251, 252, 253, 254, 255, 256, 257, 258, 259, 260, 261, 262, 263, 264, 265, 266, 267, 268, 269, 270, 271, 272, 273, 274, 275, 276, 277, 278, 279, 280, 281, 282, 283, 284, 285, 286, 287, 288, 289, 290, 291, 292, 293, 294, 295, 296, 297, 298, 299, 300, 301, 302, 303, 304, 305, 306, 307, 308, 309, 310, 311, 312, 313, 314, 315, 316, 317, 318, 319, 320, 321, 322, 323, 324, 325, 326, 327, 328, 329, 330],
      "AcquisitionTime": ["110647.532500", "110648.537500", "110649.540000", "110650.545000", "110651.547500", "110652.552500", "110653.557500", "110654.560000", "110655.565000", "110656.567500", "110657.572500", "110658.577500", "110659.580000", "110700.585000", "110701.587500", "110702.592500", "110703.597500", "110704.600000", "110705.605000", "110706.607500", "110707.612500", "110708.617500", "110709.620000", "110710.625000", "110711.627500", "110712.632500", "110713.637500", "110714.640000", "110715.645000", "110716.650000", "110717.652500", "110718.657500", "110719.660000", "110720.665000", "110721.670000", "110722.672500", "110723.677500", "110724.680000", "110725.685000", "110726.690000", "110727.692500", "110728.697500", "110729.700000", "110730.705000", "110731.710000", "110732.712500", "110733.717500", "110734.720000", "110735.725000", "110736.730000", "110737.732500", "110738.737500", "110739.740000", "110740.745000", "110741.750000", "110742.752500", "110743.757500", "110744.762500", "110745.765000", "110746.770000", "110747.772500", "110748.777500", "110749.782500", "110750.785000", "110751.790000", "110752.792500", "110753.797500", "110754.802500", "110755.805000", "110756.810000", "110757.812500", "110758.817500", "110759.822500", "110800.825000", "110801.830000", "110802.832500", "110803.837500", "110804.842500", "110805.845000", "110806.850000", "110807.852500", "110808.857500", "110809.862500", "110810.865000", "110811.870000", "110812.872500", "110813.877500", "110814.882500", "110815.885000", "110816.890000", "110817.895000", "110818.897500", "110819.902500", "110820.905000", "110821.910000", "110822.915000", "110823.917500", "110824.922500", "110825.925000", "110826.930000", "110827.935000", "110828.937500", "110829.942500", "110830.945000", "110831.950000", "110832.955000", "110833.957500", "110834.962500", "110835.965000", "110836.970000", "110837.975000", "110838.977500", "110839.982500", "110840.985000", "110841.990000", "110842.995000", "110843.997500", "110845.002500", "110846.005000", "110847.010000", "110848.015000", "110849.017500", "110850.022500", "110851.027500", "110852.030000", "110853.035000", "110854.037500", "110855.042500", "110856.047500", "110857.050000", "110858.055000", "110859.057500", "110900.062500", "110901.067500", "110902.070000", "110903.075000", "110904.077500", "110905.082500", "110906.087500", "110907.090000", "110908.095000", "110909.097500", "110910.102500", "110911.107500", "110912.110000", "110913.115000", "110914.117500", "110915.122500", "110916.127500", "110917.130000", "110918.135000", "110919.140000", "110920.142500", "110921.147500", "110922.150000", "110923.155000", "110924.160000", "110925.162500", "110926.167500", "110927.170000", "110928.175000", "110929.180000", "110930.182500", "110931.187500", "110932.190000", "110933.195000", "110934.200000", "110935.202500", "110936.207500", "110937.210000", "110938.215000", "110939.220000", "110940.222500", "110941.227500", "110942.230000", "110943.235000", "110944.240000", "110945.242500", "110946.247500", "110947.250000", "110948.255000", "110949.260000", "110950.262500", "110951.267500", "110952.272500", "110953.275000", "110954.280000", "110955.282500", "110956.287500", "110957.292500", "110958.295000", "110959.300000", "111000.302500", "111001.307500", "111002.312500", "111003.315000", "111004.320000", "111005.322500", "111006.327500", "111007.332500", "111008.335000", "111009.340000", "111010.342500", "111011.347500", "111012.352500", "111013.355000", "111014.360000", "111015.362500", "111016.367500", "111017.372500", "111018.375000", "111019.380000", "111020.382500", "111021.387500", "111022.392500", "111023.395000", "111024.400000", "111025.405000", "111026.407500", "111027.412500", "111028.415000", "111029.420000", "111030.425000", "111031.427500", "111032.432500", "111033.435000", "111034.440000", "111035.445000", "111036.447500", "111037.452500", "111038.455000", "111039.460000", "111040.465000", "111041.467500", "111042.472500", "111043.475000", "111044.480000", "111045.485000", "111046.487500", "111047.492500", "111048.495000", "111049.500000", "111050.505000", "111051.507500", "111052.512500", "111053.517500", "111054.520000", "111055.525000", "111056.527500", "111057.532500", "111058.537500", "111059.540000", "111100.545000", "111101.547500", "111102.552500", "111103.557500", "111104.560000", "111105.565000", "111106.567500", "111107.572500", "111108.577500", "111109.580000", "111110.585000", "111111.587500", "111112.592500", "111113.597500", "111114.600000", "111115.605000", "111116.607500", "111117.612500", "111118.617500", "111119.620000", "111120.625000", "111121.627500", "111122.632500", "111123.637500", "111124.640000", "111125.645000", "111126.650000", "111127.652500", "111128.657500", "111129.660000", "111130.665000", "111131.670000", "111132.672500", "111133.677500", "111134.680000", "111135.685000", "111136.690000", "111137.692500", "111138.697500", "111139.700000", "111140.705000", "111141.710000", "111142.712500", "111143.717500", "111144.720000", "111145.725000", "111146.730000", "111147.732500", "111148.737500", "111149.740000", "111150.745000", "111151.750000", "111152.752500", "111153.757500", "111154.762500", "111155.765000", "111156.770000", "111157.772500", "111158.777500", "111159.782500", "111200.785000", "111201.790000", "111202.792500", "111203.797500", "111204.802500", "111205.805000", "111206.810000", "111207.812500", "111208.817500", "111209.822500", "111210.825000", "111211.830000", "111212.832500", "111213.837500", "111214.842500", "111215.845000", "111216.850000", "111217.852500"],
      "ContentTime": ["110709.484000", "110709.484000", "110709.484000", "110709.500000", "110709.500000", "110709.500000", "110709.500000", "110709.500000", "110709.500000", "110709.500000", "110709.515000", "110709.515000", "110709.515000", "110709.515000", "110709.515000", "110709.515000", "110709.515000", "110709.531000", "110709.531000", "110709.531000", "110709.531000", "110729.453000", "110729.453000", "110729.453000", "110729.453000", "110729.468000", "110729.468000", "110729.468000", "110729.468000", "110729.468000", "110729.468000", "110729.468000", "110729.484000", "110729.484000", "110729.484000", "110729.484000", "110729.484000", "110729.500000", "110729.500000", "110729.500000", "110729.500000", "110749.453000", "110749.453000", "110749.453000", "110749.453000", "110749.468000", "110749.468000", "110749.468000", "110749.468000", "110749.468000", "110749.484000", "110749.484000", "110749.484000", "110749.484000", "110749.484000", "110749.484000", "110749.484000", "110749.500000", "110749.500000", "110749.500000", "110749.500000", "110809.453000", "110809.453000", "110809.453000", "110809.453000", "110809.468000", "110809.468000", "110809.468000", "110809.468000", "110809.468000", "110809.468000", "110809.468000", "110809.468000", "110809.484000", "110809.484000", "110809.484000", "110809.484000", "110809.484000", "110809.500000", "110809.500000", "110809.500000", "110829.453000", "110829.453000", "110829.453000", "110829.468000", "110829.468000", "110829.468000", "110829.468000", "110829.468000", "110829.468000", "110829.468000", "110829.484000", "110829.484000", "110829.484000", "110829.484000", "110829.484000", "110829.484000", "110829.484000", "110829.500000", "110829.500000", "110829.500000", "110849.453000", "110849.453000", "110849.453000", "110849.453000", "110849.468000", "110849.468000", "110849.468000", "110849.468000", "110849.468000", "110849.468000", "110849.484000", "110849.484000", "110849.484000", "110849.484000", "110849.484000", "110849.484000", "110849.484000", "110849.484000", "110849.500000", "110849.500000", "110909.453000", "110909.453000", "110909.453000", "110909.453000", "110909.468000", "110909.468000", "110909.468000", "110909.468000", "110909.468000", "110909.468000", "110909.484000", "110909.484000", "110909.484000", "110909.484000", "110909.484000", "110909.484000", "110909.484000", "110909.500000", "110909.500000", "110909.500000", "110929.453000", "110929.453000", "110929.453000", "110929.453000", "110929.468000", "110929.468000", "110929.468000", "110929.468000", "110929.468000", "110929.468000", "110929.484000", "110929.484000", "110929.484000", "110929.484000", "110929.484000", "110929.484000", "110929.484000", "110929.500000", "110929.500000", "110929.500000", "110949.453000", "110949.453000", "110949.453000", "110949.453000", "110949.468000", "110949.468000", "110949.484000", "110949.484000", "110949.484000", "110949.484000", "110949.484000", "110949.500000", "110949.500000", "110949.500000", "110949.500000", "110949.500000", "110949.500000", "110949.500000", "110949.515000", "110949.515000", "111009.453000", "111009.453000", "111009.453000", "111009.468000", "111009.468000", "111009.468000", "111009.468000", "111009.468000", "111009.484000", "111009.484000", "111009.484000", "111009.484000", "111009.484000", "111009.484000", "111009.500000", "111009.500000", "111009.500000", "111009.500000", "111009.500000", "111009.515000", "111029.453000", "111029.453000", "111029.453000", "111029.468000", "111029.468000", "111029.468000", "111029.468000", "111029.468000", "111029.468000", "111029.468000", "111029.484000", "111029.484000", "111029.484000", "111029.484000", "111029.484000", "111029.500000", "111029.500000", "111029.500000", "111029.500000", "111029.500000", "111049.453000", "111049.453000", "111049.453000", "111049.453000", "111049.468000", "111049.468000", "111049.468000", "111049.468000", "111049.468000", "111049.468000", "111049.468000", "111049.468000", "111049.484000", "111049.484000", "111049.484000", "111049.484000", "111049.484000", "111049.484000", "111049.484000", "111049.500000", "111109.453000", "111109.453000", "111109.453000", "111109.468000", "111109.468000", "111109.468000", "111109.468000", "111109.468000", "111109.468000", "111109.468000", "111109.484000", "111109.484000", "111109.484000", "111109.484000", "111109.484000", "111109.500000", "111109.500000", "111109.500000", "111109.500000", "111109.500000", "111129.453000", "111129.453000", "111129.453000", "111129.453000", "111129.468000", "111129.468000", "111129.468000", "111129.468000", "111129.468000", "111129.468000", "111129.468000", "111129.484000", "111129.484000", "111129.484000", "111129.484000", "111129.484000", "111129.484000", "111129.484000", "111129.500000", "111129.500000", "111149.453000", "111149.453000", "111149.468000", "111149.468000", "111149.468000", "111149.468000", "111149.468000", "111149.468000", "111149.468000", "111149.484000", "111149.484000", "111149.484000", "111149.484000", "111149.484000", "111149.484000", "111149.484000", "111149.500000", "111149.500000", "111149.500000", "111149.500000", "111209.453000", "111209.453000", "111209.453000", "111209.453000", "111209.468000", "111209.468000", "111209.468000", "111209.468000", "111209.468000", "111209.484000", "111209.484000", "111209.484000", "111209.484000", "111209.484000", "111209.484000", "111209.500000", "111209.500000", "111209.500000", "111209.500000", "111209.500000", "111223.109000", "111223.125000", "111223.125000", "111223.125000", "111223.125000", "111223.125000", "111223.125000", "111223.140000", "111223.140000"],
      "InstanceCreationTime": ["110709.484000", "110709.484000", "110709.484000", "110709.500000", "110709.500000", "110709.500000", "110709.500000", "110709.500000", "110709.500000", "110709.500000", "110709.515000", "110709.515000", "110709.515000", "110709.515000", "110709.515000", "110709.515000", "110709.515000", "110709.531000", "110709.531000", "110709.531000", "110709.531000", "110729.453000", "110729.453000", "110729.453000", "110729.453000", "110729.468000", "110729.468000", "110729.468000", "110729.468000", "110729.468000", "110729.468000", "110729.468000", "110729.484000", "110729.484000", "110729.484000", "110729.484000", "110729.484000", "110729.500000", "110729.500000", "110729.500000", "110729.500000", "110749.453000", "110749.453000", "110749.453000", "110749.453000", "110749.468000", "110749.468000", "110749.468000", "110749.468000", "110749.468000", "110749.484000", "110749.484000", "110749.484000", "110749.484000", "110749.484000", "110749.484000", "110749.484000", "110749.500000", "110749.500000", "110749.500000", "110749.500000", "110809.453000", "110809.453000", "110809.453000", "110809.453000", "110809.468000", "110809.468000", "110809.468000", "110809.468000", "110809.468000", "110809.468000", "110809.468000", "110809.468000", "110809.484000", "110809.484000", "110809.484000", "110809.484000", "110809.484000", "110809.500000", "110809.500000", "110809.500000", "110829.453000", "110829.453000", "110829.453000", "110829.468000", "110829.468000", "110829.468000", "110829.468000", "110829.468000", "110829.468000", "110829.468000", "110829.484000", "110829.484000", "110829.484000", "110829.484000", "110829.484000", "110829.484000", "110829.484000", "110829.500000", "110829.500000", "110829.500000", "110849.453000", "110849.453000", "110849.453000", "110849.453000", "110849.468000", "110849.468000", "110849.468000", "110849.468000", "110849.468000", "110849.468000", "110849.484000", "110849.484000", "110849.484000", "110849.484000", "110849.484000", "110849.484000", "110849.484000", "110849.484000", "110849.500000", "110849.500000", "110909.453000", "110909.453000", "110909.453000", "110909.453000", "110909.468000", "110909.468000", "110909.468000", "110909.468000", "110909.468000", "110909.468000", "110909.484000", "110909.484000", "110909.484000", "110909.484000", "110909.484000", "110909.484000", "110909.484000", "110909.500000", "110909.500000", "110909.500000", "110929.453000", "110929.453000", "110929.453000", "110929.453000", "110929.468000", "110929.468000", "110929.468000", "110929.468000", "110929.468000", "110929.468000", "110929.484000", "110929.484000", "110929.484000", "110929.484000", "110929.484000", "110929.484000", "110929.484000", "110929.500000", "110929.500000", "110929.500000", "110949.453000", "110949.453000", "110949.453000", "110949.453000", "110949.468000", "110949.468000", "110949.484000", "110949.484000", "110949.484000", "110949.484000", "110949.484000", "110949.500000", "110949.500000", "110949.500000", "110949.500000", "110949.500000", "110949.500000", "110949.500000", "110949.515000", "110949.515000", "111009.453000", "111009.453000", "111009.453000", "111009.468000", "111009.468000", "111009.468000", "111009.468000", "111009.468000", "111009.484000", "111009.484000", "111009.484000", "111009.484000", "111009.484000", "111009.484000", "111009.500000", "111009.500000", "111009.500000", "111009.500000", "111009.500000", "111009.515000", "111029.453000", "111029.453000", "111029.453000", "111029.468000", "111029.468000", "111029.468000", "111029.468000", "111029.468000", "111029.468000", "111029.468000", "111029.484000", "111029.484000", "111029.484000", "111029.484000", "111029.484000", "111029.500000", "111029.500000", "111029.500000", "111029.500000", "111029.500000", "111049.453000", "111049.453000", "111049.453000", "111049.453000", "111049.468000", "111049.468000", "111049.468000", "111049.468000", "111049.468000", "111049.468000", "111049.468000", "111049.468000", "111049.484000", "111049.484000", "111049.484000", "111049.484000", "111049.484000", "111049.484000", "111049.484000", "111049.500000", "111109.453000", "111109.453000", "111109.453000", "111109.468000", "111109.468000", "111109.468000", "111109.468000", "111109.468000", "111109.468000", "111109.468000", "111109.484000", "111109.484000", "111109.484000", "111109.484000", "111109.484000", "111109.500000", "111109.500000", "111109.500000", "111109.500000", "111109.500000", "111129.453000", "111129.453000", "111129.453000", "111129.453000", "111129.468000", "111129.468000", "111129.468000", "111129.468000", "111129.468000", "111129.468000", "111129.468000", "111129.484000", "111129.484000", "111129.484000", "111129.484000", "111129.484000", "111129.484000", "111129.484000", "111129.500000", "111129.500000", "111149.453000", "111149.453000", "111149.468000", "111149.468000", "111149.468000", "111149.468000", "111149.468000", "111149.468000", "111149.468000", "111149.484000", "111149.484000", "111149.484000", "111149.484000", "111149.484000", "111149.484000", "111149.484000", "111149.500000", "111149.500000", "111149.500000", "111149.500000", "111209.453000", "111209.453000", "111209.453000", "111209.453000", "111209.468000", "111209.468000", "111209.468000", "111209.468000", "111209.468000", "111209.484000", "111209.484000", "111209.484000", "111209.484000", "111209.484000", "111209.484000", "111209.500000", "111209.500000", "111209.500000", "111209.500000", "111209.500000", "111223.109000", "111223.125000", "111223.125000", "111223.125000", "111223.125000", "111223.125000", "111223.125000", "111223.140000", "111223.140000"],
      "InstanceNumber": [1, 2, 3, 4, 5, 6, 7, 8, 9, 10, 11, 12, 13, 14, 15, 16, 17, 18, 19, 20, 21, 22, 23, 24, 25, 26, 27, 28, 29, 30, 31, 32, 33, 34, 35, 36, 37, 38, 39, 40, 41, 42, 43, 44, 45, 46, 47, 48, 49, 50, 51, 52, 53, 54, 55, 56, 57, 58, 59, 60, 61, 62, 63, 64, 65, 66, 67, 68, 69, 70, 71, 72, 73, 74, 75, 76, 77, 78, 79, 80, 81, 82, 83, 84, 85, 86, 87, 88, 89, 90, 91, 92, 93, 94, 95, 96, 97, 98, 99, 100, 101, 102, 103, 104, 105, 106, 107, 108, 109, 110, 111, 112, 113, 114, 115, 116, 117, 118, 119, 120, 121, 122, 123, 124, 125, 126, 127, 128, 129, 130, 131, 132, 133, 134, 135, 136, 137, 138, 139, 140, 141, 142, 143, 144, 145, 146, 147, 148, 149, 150, 151, 152, 153, 154, 155, 156, 157, 158, 159, 160, 161, 162, 163, 164, 165, 166, 167, 168, 169, 170, 171, 172, 173, 174, 175, 176, 177, 178, 179, 180, 181, 182, 183, 184, 185, 186, 187, 188, 189, 190, 191, 192, 193, 194, 195, 196, 197, 198, 199, 200, 201, 202, 203, 204, 205, 206, 207, 208, 209, 210, 211, 212, 213, 214, 215, 216, 217, 218, 219, 220, 221, 222, 223, 224, 225, 226, 227, 228, 229, 230, 231, 232, 233, 234, 235, 236, 237, 238, 239, 240, 241, 242, 243, 244, 245, 246, 247, 248, 249, 250, 251, 252, 253, 254, 255, 256, 257, 258, 259, 260, 261, 262, 263, 264, 265, 266, 267, 268, 269, 270, 271, 272, 273, 274, 275, 276, 277, 278, 279, 280, 281, 282, 283, 284, 285, 286, 287, 288, 289, 290, 291, 292, 293, 294, 295, 296, 297, 298, 299, 300, 301, 302, 303, 304, 305, 306, 307, 308, 309, 310, 311, 312, 313, 314, 315, 316, 317, 318, 319, 320, 321, 322, 323, 324, 325, 326, 327, 328, 329, 330],
      "LargestImagePixelValue": [2219, 2212, 2211, 2207, 2177, 2196, 2185, 2195, 2222, 2227, 2186, 2191, 2181, 2179, 2174, 2194, 2187, 2230, 2194, 2189, 2183, 2204, 2234, 2209, 2228, 2215, 2190, 2216, 2238, 2212, 2160, 2214, 2222, 2204, 2237, 2215, 2235, 2245, 2222, 2220, 2194, 2212, 2172, 2212, 2199, 2213, 2240, 2249, 2206, 2230, 2228, 2223, 2188, 2207, 2199, 2185, 2227, 2208, 2214, 2223, 2217, 2223, 2212, 2220, 2226, 2216, 2197, 2213, 2253, 2225, 2217, 2230, 2254, 2248, 2229, 2212, 2232, 2257, 2228, 2246, 2228, 2194, 2230, 2230, 2213, 2229, 2212, 2222, 2238, 2218, 2238, 2217, 2196, 2254, 2205, 2204, 2181, 2212, 2217, 2211, 2199, 2235, 2223, 2232, 2234, 2251, 2229, 2192, 2227, 2221, 2246, 2218, 2234, 2223, 2218, 2211, 2272, 2251, 2239, 2246, 2247, 2228, 2215, 2244, 2227, 2209, 2224, 2245, 2248, 2239, 2217, 2249, 2225, 2214, 2218, 2211, 2224, 2209, 2239, 2248, 2222, 2259, 2207, 2227, 2250, 2258, 2219, 2227, 2212, 2234, 2214, 2192, 2203, 2249, 2175, 2200, 2226, 2237, 2216, 2198, 2195, 2209, 2236, 2197, 2225, 2225, 2197, 2218, 2199, 2211, 2216, 2234, 2246, 2214, 2205, 2203, 2190, 2209, 2212, 2188, 2175, 2205, 2231, 2228, 2211, 2192, 2214, 2201, 2238, 2212, 2188, 2208, 2215, 2232, 2207, 2222, 2197, 2225, 2203, 2227, 2206, 2210, 2213, 2229, 2204, 2196, 2210, 2229, 2230, 2229, 2228, 2228, 2215, 2233, 2179, 2209, 2213, 2214, 2278, 2235, 2205, 2216, 2221, 2217, 2216, 2196, 2190, 2216, 2225, 2225, 2196, 2192, 2261, 2241, 2231, 2210, 2222, 2217, 2222, 2212, 2208, 2209, 2232, 2238, 2226, 2246, 2235, 2211, 2254, 2236, 2251, 2255, 2244, 2264, 2217, 2252, 2230, 2278, 2241, 2261, 2250, 2235, 2238, 2272, 2251, 2254, 2260, 2229, 2255, 2254, 2243, 2248, 2260, 2261, 2235, 2245, 2239, 2250, 2264, 2246, 2267, 2254, 2230, 2240, 2246, 2222, 2224, 2251, 2248, 2223, 2250, 2242, 2260, 2255, 2262, 2284, 2261, 2280, 2241, 2257, 2250, 2248, 2267, 2260, 2269, 2271, 2226, 2253, 2263, 2262, 2253, 2237, 2274, 2286, 2274, 2267, 2245, 2287, 2298, 2276, 2239, 2274, 2268, 2234, 2272, 2262, 2250, 2275, 2257, 2240],
      "WindowCenter": [444.0, 444.0, 443.0, 442.0, 441.0, 441.0, 440.0, 441.0, 442.0, 443.0, 443.0, 443.0, 444.0, 445.0, 446.0, 446.0, 446.0, 447.0, 447.0, 446.0, 445.0, 444.0, 445.0, 444.0, 444.0, 444.0, 443.0, 443.0, 444.0, 443.0, 442.0, 442.0, 441.0, 441.0, 441.0, 441.0, 441.0, 442.0, 442.0, 443.0, 443.0, 443.0, 443.0, 443.0, 443.0, 443.0, 443.0, 443.0, 443.0, 443.0, 443.0, 443.0, 443.0, 443.0, 443.0, 442.0, 443.0, 443.0, 442.0, 442.0, 443.0, 443.0, 444.0, 444.0, 444.0, 443.0, 442.0, 442.0, 442.0, 441.0, 442.0, 442.0, 442.0, 441.0, 442.0, 443.0, 443.0, 443.0, 443.0, 443.0, 443.0, 442.0, 443.0, 443.0, 444.0, 445.0, 444.0, 444.0, 443.0, 443.0, 443.0, 443.0, 443.0, 443.0, 443.0, 443.0, 443.0, 443.0, 442.0, 441.0, 441.0, 442.0, 442.0, 443.0, 443.0, 443.0, 443.0, 443.0, 443.0, 443.0, 443.0, 444.0, 444.0, 444.0, 444.0, 445.0, 446.0, 444.0, 445.0, 444.0, 445.0, 446.0, 447.0, 447.0, 445.0, 444.0, 443.0, 442.0, 442.0, 443.0, 443.0, 444.0, 445.0, 445.0, 444.0, 444.0, 443.0, 443.0, 444.0, 444.0, 444.0, 444.0, 443.0, 443.0, 443.0, 443.0, 443.0, 443.0, 444.0, 445.0, 445.0, 444.0, 445.0, 444.0, 443.0, 444.0, 444.0, 444.0, 444.0, 445.0, 444.0, 444.0, 444.0, 444.0, 444.0, 444.0, 444.0, 444.0, 444.0, 443.0, 442.0, 442.0, 443.0, 442.0, 443.0, 443.0, 444.0, 445.0, 445.0, 444.0, 443.0, 442.0, 442.0, 442.0, 443.0, 443.0, 443.0, 443.0, 443.0, 442.0, 442.0, 441.0, 441.0, 441.0, 441.0, 443.0, 443.0, 443.0, 444.0, 444.0, 444.0, 444.0, 444.0, 444.0, 443.0, 443.0, 443.0, 443.0, 443.0, 444.0, 446.0, 446.0, 446.0, 446.0, 445.0, 444.0, 444.0, 444.0, 443.0, 443.0, 444.0, 444.0, 444.0, 443.0, 444.0, 443.0, 442.0, 443.0, 443.0, 443.0, 444.0, 444.0, 446.0, 445.0, 446.0, 446.0, 446.0, 445.0, 444.0, 444.0, 444.0, 444.0, 444.0, 445.0, 446.0, 447.0, 447.0, 446.0, 446.0, 445.0, 445.0, 444.0, 443.0, 443.0, 443.0, 443.0, 443.0, 443.0, 443.0, 443.0, 443.0, 443.0, 443.0, 443.0, 442.0, 442.0, 442.0, 442.0, 443.0, 443.0, 444.0, 445.0, 445.0, 446.0, 445.0, 444.0, 444.0, 443.0, 443.0, 443.0, 444.0, 445.0, 446.0, 446.0, 446.0, 444.0, 443.0, 443.0, 443.0, 443.0, 443.0, 443.0, 443.0, 443.0, 443.0, 442.0, 443.0, 444.0, 443.0, 443.0, 443.0, 442.0, 442.0, 440.0, 441.0, 442.0, 442.0, 443.0, 444.0, 443.0, 443.0, 443.0, 443.0, 443.0, 443.0, 443.0, 443.0, 443.0, 443.0, 443.0, 442.0, 442.0, 442.0, 442.0, 442.0, 442.0, 443.0, 443.0, 444.0, 443.0],
