{
  "AcquisitionMatrixPE": 104,
  "AcquisitionNumber": 1,
  "AcquisitionTime": "11:49:17.435000",
  "BandwidthPerPixelPhaseEncode": 43.054,
  "BaseResolution": 104,
  "CoilString": "C:E1_2",
  "ConversionSoftware": "dcm2niix",
  "ConversionSoftwareVersion": "v1.0.20191031",
  "DerivedVendorReportedEchoSpacing": 0.000669999,
  "DeviceSerialNumber": "18932",
  "DwellTime": 2.8e-06,
  "EchoTime": 0.02,
  "EffectiveEchoSpacing": 0.000223333,
  "FlipAngle": 30,
  "ImageComments": "Unaliased_MB2_PE2",
  "ImageOrientationPatientDICOM": [1, 0, 0, 0, 0.991216, -0.132256],
  "ImageType": [
    "ORIGINAL",
    "PRIMARY",
    "M",
    "MB",
    "ND",
    "MOSAIC"
],
  "ImagingFrequency": 297.229,
  "InPlanePhaseEncodingDirectionDICOM": "COL",
  "InstitutionAddress": "Richmond_Street_North_1151_London_409EF2_Ontario_CA_N6A_5B7",
  "InstitutionName": "Robarts_Reserch_Institute",
  "InstitutionalDepartmentName": "Department",
  "MRAcquisitionType": "2D",
  "MagneticFieldStrength": 6.98,
  "Manufacturer": "Siemens",
  "ManufacturersModelName": "Investigational_Device_7T",
  "Modality": "MR",
  "MultibandAccelerationFactor": 2,
  "ParallelReductionFactorInPlane": 3,
  "PartialFourier": 0.875,
  "PatientPosition": "HFS",
  "PercentPhaseFOV": 100,
  "PhaseEncodingDirection": "j-",
  "PhaseEncodingSteps": 91,
  "PhaseResolution": 1,
  "PixelBandwidth": 1717,
  "ProcedureStepDescription": "Diedrichsen_SeqRep4",
  "ProtocolName": "mbep2d_bold_mb2_p3_AP_2iso",
  "PulseSequenceDetails": "%CustomerSeq%_cmrr_mbep2d_bold",
  "ReceiveCoilName": "CFMM_8Tx32Rx",
  "ReconMatrixPE": 104,
  "RefLinesPE": 36,
  "RepetitionTime": 1,
  "ScanOptions": "PFP_FS",
  "ScanningSequence": "EP",
  "SequenceName": "epfid2d1_104",
  "SequenceVariant": "SK_SS",
  "SeriesDescription": "mbep2d_bold_mb2_p3_AP_2iso",
  "SeriesNumber": 28,
  "ShimSetting": [13, 2083, 18, 1313, 185, 69, 53, -49],
  "SliceThickness": 2,
  "SliceTiming": [0, 0.2275, 0.455, 0.6825, 0.91, 0.135, 0.365, 0.5925, 0.82, 0.045, 0.2725, 0.5, 0.7275, 0.9575, 0.1825, 0.41, 0.6375, 0.865, 0.09, 0.3175, 0.545, 0.775, 0, 0.2275, 0.455, 0.6825, 0.91, 0.135, 0.365, 0.5925, 0.82, 0.045, 0.2725, 0.5, 0.7275, 0.9575, 0.1825, 0.41, 0.6375, 0.865, 0.09, 0.3175, 0.545, 0.775],
  "SoftwareVersions": "syngo_MR_B17",
  "SpacingBetweenSlices": 2,
  "StationName": "MASTER",
  "TaskName": "dsp",
  "TotalReadoutTime": 0.0230033,
  "TxRefAmp": 120,
  "dcmmeta_affine": [
    [-2.0, 0.0, 0.0, 105.4527816772461],
    [0.0, 1.9824310541152954, -0.2645128071308136, -100.50387573242188],
    [0.0, 0.2645128071308136, 1.9824310541152954, -20.56864356994629],
    [0.0, 0.0, 0.0, 1.0]
],
  "dcmmeta_reorient_transform": [
    [0.0, -1.0, 0.0, 103.0],
    [1.0, 0.0, 0.0, 0.0],
    [0.0, 0.0, 1.0, 0.0],
    [0.0, 0.0, 0.0, 1.0]
],
  "dcmmeta_shape": [104, 104, 44, 330],
  "dcmmeta_slice_dim": 2,
  "dcmmeta_version": 0.6,
  "global": {
    "const": {
      "AcquisitionMatrix": [104, 0, 0, 104],
      "AngioFlag": "N",
      "BitsAllocated": 16,
      "BitsStored": 12,
      "Columns": 728,
      "EchoNumbers": 1,
      "EchoTime": 20.0,
      "EchoTrainLength": 1,
      "FlipAngle": 30.0,
      "HighBit": 11,
      "ImageOrientationPatient": [1.0, 0.0, 0.0, 0.0, 0.99121553937119, -0.132256396855],
      "ImagePositionPatient": [-729.45278453827, -722.20502355071, 89.20416522268],
      "ImageType": [
        "ORIGINAL",
        "PRIMARY",
        "M",
        "MB",
        "ND",
        "MOSAIC"
],
      "ImagedNucleus": "1H",
      "ImagingFrequency": 297.228809,
      "InPlanePhaseEncodingDirection": "COL",
      "MRAcquisitionType": "2D",
      "MagneticFieldStrength": 6.98,
      "Manufacturer": "SIEMENS",
      "ManufacturerModelName": "Investigational_Device_7T",
      "Modality": "MR",
      "NumberOfAverages": 1.0,
      "NumberOfPhaseEncodingSteps": 91,
      "PercentPhaseFieldOfView": 100.0,
      "PercentSampling": 100.0,
      "PerformedProcedureStepStartTime": "104742.937000",
      "PhotometricInterpretation": "MONOCHROME2",
      "PixelBandwidth": 1717.0,
      "PixelRepresentation": 0,
      "PixelSpacing": [2.0, 2.0],
      "ProtocolName": "mbep2d_bold_mb2_p3_AP 2iso",
      "RepetitionTime": 1000.0,
      "Rows": 728,
      "SAR": 0.0,
      "SamplesPerPixel": 1,
      "ScanOptions": [
        "PFP",
        "FS"
],
      "ScanningSequence": "EP",
      "SequenceName": "epfid2d1_104",
      "SequenceVariant": [
        "SK",
        "SS"
],
      "SeriesDescription": "mbep2d_bold_mb2_p3_AP 2iso",
      "SeriesNumber": 28,
      "SeriesTime": "114949.484000",
      "SliceLocation": -7.0956794600561,
      "SliceThickness": 2.0,
      "SmallestImagePixelValue": 0,
      "SoftwareVersions": "syngo MR B17",
      "SpacingBetweenSlices": 2.000000032963,
      "SpecificCharacterSet": "ISO_IR 100",
      "StudyID": "1",
      "StudyTime": "104742.875000",
      "TransmitCoilName": "CFMM_8Tx32Rx",
      "VariableFlipAngleFlag": "N",
      "WindowCenterWidthExplanation": "Algo1",
      "dBdt": 0.0},
    "slices": {}
  },
  "time": {
    "samples": {
      "AcquisitionNumber": [1, 2, 3, 4, 5, 6, 7, 8, 9, 10, 11, 12, 13, 14, 15, 16, 17, 18, 19, 20, 21, 22, 23, 24, 25, 26, 27, 28, 29, 30, 31, 32, 33, 34, 35, 36, 37, 38, 39, 40, 41, 42, 43, 44, 45, 46, 47, 48, 49, 50, 51, 52, 53, 54, 55, 56, 57, 58, 59, 60, 61, 62, 63, 64, 65, 66, 67, 68, 69, 70, 71, 72, 73, 74, 75, 76, 77, 78, 79, 80, 81, 82, 83, 84, 85, 86, 87, 88, 89, 90, 91, 92, 93, 94, 95, 96, 97, 98, 99, 100, 101, 102, 103, 104, 105, 106, 107, 108, 109, 110, 111, 112, 113, 114, 115, 116, 117, 118, 119, 120, 121, 122, 123, 124, 125, 126, 127, 128, 129, 130, 131, 132, 133, 134, 135, 136, 137, 138, 139, 140, 141, 142, 143, 144, 145, 146, 147, 148, 149, 150, 151, 152, 153, 154, 155, 156, 157, 158, 159, 160, 161, 162, 163, 164, 165, 166, 167, 168, 169, 170, 171, 172, 173, 174, 175, 176, 177, 178, 179, 180, 181, 182, 183, 184, 185, 186, 187, 188, 189, 190, 191, 192, 193, 194, 195, 196, 197, 198, 199, 200, 201, 202, 203, 204, 205, 206, 207, 208, 209, 210, 211, 212, 213, 214, 215, 216, 217, 218, 219, 220, 221, 222, 223, 224, 225, 226, 227, 228, 229, 230, 231, 232, 233, 234, 235, 236, 237, 238, 239, 240, 241, 242, 243, 244, 245, 246, 247, 248, 249, 250, 251, 252, 253, 254, 255, 256, 257, 258, 259, 260, 261, 262, 263, 264, 265, 266, 267, 268, 269, 270, 271, 272, 273, 274, 275, 276, 277, 278, 279, 280, 281, 282, 283, 284, 285, 286, 287, 288, 289, 290, 291, 292, 293, 294, 295, 296, 297, 298, 299, 300, 301, 302, 303, 304, 305, 306, 307, 308, 309, 310, 311, 312, 313, 314, 315, 316, 317, 318, 319, 320, 321, 322, 323, 324, 325, 326, 327, 328, 329, 330],
      "AcquisitionTime": ["114917.435000", "114918.437500", "114919.442500", "114920.445000", "114921.450000", "114922.455000", "114923.457500", "114924.462500", "114925.465000", "114926.470000", "114927.475000", "114928.477500", "114929.482500", "114930.485000", "114931.490000", "114932.495000", "114933.497500", "114934.502500", "114935.505000", "114936.510000", "114937.515000", "114938.517500", "114939.522500", "114940.525000", "114941.530000", "114942.535000", "114943.537500", "114944.542500", "114945.547500", "114946.550000", "114947.555000", "114948.557500", "114949.562500", "114950.567500", "114951.570000", "114952.575000", "114953.577500", "114954.582500", "114955.587500", "114956.590000", "114957.595000", "114958.597500", "114959.602500", "115000.607500", "115001.610000", "115002.615000", "115003.617500", "115004.622500", "115005.627500", "115006.630000", "115007.635000", "115008.637500", "115009.642500", "115010.647500", "115011.650000", "115012.655000", "115013.660000", "115014.662500", "115015.667500", "115016.670000", "115017.675000", "115018.680000", "115019.682500", "115020.687500", "115021.690000", "115022.695000", "115023.700000", "115024.702500", "115025.707500", "115026.710000", "115027.715000", "115028.720000", "115029.722500", "115030.727500", "115031.730000", "115032.735000", "115033.740000", "115034.742500", "115035.747500", "115036.750000", "115037.755000", "115038.760000", "115039.762500", "115040.767500", "115041.770000", "115042.775000", "115043.780000", "115044.782500", "115045.787500", "115046.792500", "115047.795000", "115048.800000", "115049.802500", "115050.807500", "115051.812500", "115052.815000", "115053.820000", "115054.822500", "115055.827500", "115056.832500", "115057.835000", "115058.840000", "115059.842500", "115100.847500", "115101.852500", "115102.855000", "115103.860000", "115104.862500", "115105.867500", "115106.872500", "115107.875000", "115108.880000", "115109.882500", "115110.887500", "115111.892500", "115112.895000", "115113.900000", "115114.905000", "115115.907500", "115116.912500", "115117.915000", "115118.920000", "115119.925000", "115120.927500", "115121.932500", "115122.935000", "115123.940000", "115124.945000", "115125.947500", "115126.952500", "115127.955000", "115128.960000", "115129.965000", "115130.967500", "115131.972500", "115132.975000", "115133.980000", "115134.985000", "115135.987500", "115136.992500", "115137.995000", "115139.000000", "115140.005000", "115141.007500", "115142.012500", "115143.015000", "115144.020000", "115145.025000", "115146.027500", "115147.032500", "115148.037500", "115149.040000", "115150.045000", "115151.047500", "115152.052500", "115153.057500", "115154.060000", "115155.065000", "115156.067500", "115157.072500", "115158.077500", "115159.080000", "115200.085000", "115201.087500", "115202.092500", "115203.097500", "115204.100000", "115205.105000", "115206.107500", "115207.112500", "115208.117500", "115209.120000", "115210.125000", "115211.127500", "115212.132500", "115213.137500", "115214.140000", "115215.145000", "115216.147500", "115217.152500", "115218.157500", "115219.160000", "115220.165000", "115221.170000", "115222.172500", "115223.177500", "115224.180000", "115225.185000", "115226.190000", "115227.192500", "115228.197500", "115229.200000", "115230.205000", "115231.210000", "115232.212500", "115233.217500", "115234.220000", "115235.225000", "115236.230000", "115237.232500", "115238.237500", "115239.240000", "115240.245000", "115241.250000", "115242.252500", "115243.257500", "115244.260000", "115245.265000", "115246.270000", "115247.272500", "115248.277500", "115249.282500", "115250.285000", "115251.290000", "115252.292500", "115253.297500", "115254.302500", "115255.305000", "115256.310000", "115257.312500", "115258.317500", "115259.322500", "115300.325000", "115301.330000", "115302.332500", "115303.337500", "115304.342500", "115305.345000", "115306.350000", "115307.352500", "115308.357500", "115309.362500", "115310.365000", "115311.370000", "115312.372500", "115313.377500", "115314.382500", "115315.385000", "115316.390000", "115317.392500", "115318.397500", "115319.402500", "115320.405000", "115321.410000", "115322.415000", "115323.417500", "115324.422500", "115325.425000", "115326.430000", "115327.435000", "115328.437500", "115329.442500", "115330.445000", "115331.450000", "115332.455000", "115333.457500", "115334.462500", "115335.465000", "115336.470000", "115337.475000", "115338.477500", "115339.482500", "115340.485000", "115341.490000", "115342.495000", "115343.497500", "115344.502500", "115345.505000", "115346.510000", "115347.515000", "115348.517500", "115349.522500", "115350.525000", "115351.530000", "115352.535000", "115353.537500", "115354.542500", "115355.547500", "115356.550000", "115357.555000", "115358.557500", "115359.562500", "115400.567500", "115401.570000", "115402.575000", "115403.577500", "115404.582500", "115405.587500", "115406.590000", "115407.595000", "115408.597500", "115409.602500", "115410.607500", "115411.610000", "115412.615000", "115413.617500", "115414.622500", "115415.627500", "115416.630000", "115417.635000", "115418.637500", "115419.642500", "115420.647500", "115421.650000", "115422.655000", "115423.660000", "115424.662500", "115425.667500", "115426.670000", "115427.675000", "115428.680000", "115429.682500", "115430.687500", "115431.690000", "115432.695000", "115433.700000", "115434.702500", "115435.707500", "115436.710000", "115437.715000", "115438.720000", "115439.722500", "115440.727500", "115441.730000", "115442.735000", "115443.740000", "115444.742500", "115445.747500", "115446.750000", "115447.755000"],
      "ContentTime": ["114949.484000", "114949.484000", "114949.500000", "114949.500000", "114949.500000", "114949.500000", "114949.500000", "114949.500000", "114949.500000", "114949.515000", "114949.515000", "114949.515000", "114949.515000", "114949.515000", "114949.515000", "114949.531000", "114949.531000", "114949.531000", "114949.531000", "114949.546000", "114949.546000", "114949.546000", "114949.546000", "114949.546000", "114949.546000", "114949.546000", "114949.562000", "114949.562000", "114949.562000", "114949.562000", "114949.562000", "115009.453000", "115009.453000", "115009.453000", "115009.453000", "115009.468000", "115009.468000", "115009.468000", "115009.468000", "115009.468000", "115009.468000", "115009.468000", "115009.484000", "115009.484000", "115009.484000", "115009.484000", "115009.484000", "115009.484000", "115009.484000", "115009.484000", "115009.500000", "115029.453000", "115029.453000", "115029.453000", "115029.453000", "115029.468000", "115029.468000", "115029.468000", "115029.468000", "115029.468000", "115029.468000", "115029.484000", "115029.484000", "115029.484000", "115029.484000", "115029.484000", "115029.484000", "115029.484000", "115029.484000", "115029.500000", "115029.500000", "115049.453000", "115049.453000", "115049.453000", "115049.453000", "115049.468000", "115049.468000", "115049.468000", "115049.468000", "115049.468000", "115049.468000", "115049.468000", "115049.468000", "115049.484000", "115049.484000", "115049.484000", "115049.484000", "115049.500000", "115049.500000", "115049.500000", "115049.500000", "115109.453000", "115109.453000", "115109.453000", "115109.453000", "115109.468000", "115109.468000", "115109.468000", "115109.468000", "115109.468000", "115109.468000", "115109.468000", "115109.468000", "115109.484000", "115109.484000", "115109.484000", "115109.484000", "115109.484000", "115109.500000", "115109.500000", "115109.500000", "115129.453000", "115129.453000", "115129.453000", "115129.453000", "115129.468000", "115129.468000", "115129.468000", "115129.468000", "115129.468000", "115129.468000", "115129.468000", "115129.484000", "115129.484000", "115129.484000", "115129.484000", "115129.484000", "115129.484000", "115129.484000", "115129.500000", "115129.500000", "115149.453000", "115149.453000", "115149.453000", "115149.453000", "115149.468000", "115149.468000", "115149.468000", "115149.468000", "115149.468000", "115149.468000", "115149.468000", "115149.468000", "115149.484000", "115149.484000", "115149.484000", "115149.484000", "115149.484000", "115149.484000", "115149.484000", "115149.500000", "115209.453000", "115209.453000", "115209.453000", "115209.453000", "115209.468000", "115209.468000", "115209.468000", "115209.468000", "115209.468000", "115209.468000", "115209.484000", "115209.484000", "115209.484000", "115209.484000", "115209.484000", "115209.484000", "115209.484000", "115209.500000", "115209.500000", "115209.500000", "115229.453000", "115229.453000", "115229.453000", "115229.453000", "115229.468000", "115229.468000", "115229.468000", "115229.468000", "115229.468000", "115229.468000", "115229.484000", "115229.484000", "115229.484000", "115229.484000", "115229.484000", "115229.484000", "115229.484000", "115229.500000", "115229.500000", "115229.500000", "115249.453000", "115249.453000", "115249.453000", "115249.453000", "115249.468000", "115249.468000", "115249.468000", "115249.468000", "115249.468000", "115249.468000", "115249.468000", "115249.484000", "115249.484000", "115249.484000", "115249.484000", "115249.484000", "115249.484000", "115249.484000", "115249.484000", "115249.500000", "115309.453000", "115309.453000", "115309.453000", "115309.468000", "115309.468000", "115309.468000", "115309.468000", "115309.468000", "115309.468000", "115309.468000", "115309.484000", "115309.484000", "115309.484000", "115309.484000", "115309.484000", "115309.484000", "115309.484000", "115309.484000", "115309.500000", "115309.500000", "115329.453000", "115329.453000", "115329.453000", "115329.453000", "115329.468000", "115329.468000", "115329.468000", "115329.468000", "115329.468000", "115329.468000", "115329.468000", "115329.468000", "115329.484000", "115329.484000", "115329.484000", "115329.484000", "115329.484000", "115329.484000", "115329.500000", "115329.500000", "115349.453000", "115349.453000", "115349.453000", "115349.453000", "115349.468000", "115349.468000", "115349.468000", "115349.468000", "115349.468000", "115349.468000", "115349.468000", "115349.484000", "115349.484000", "115349.484000", "115349.484000", "115349.484000", "115349.484000", "115349.484000", "115349.484000", "115349.500000", "115409.453000", "115409.453000", "115409.453000", "115409.453000", "115409.468000", "115409.468000", "115409.468000", "115409.468000", "115409.468000", "115409.468000", "115409.484000", "115409.484000", "115409.484000", "115409.484000", "115409.500000", "115409.500000", "115409.500000", "115409.500000", "115409.500000", "115409.500000", "115429.453000", "115429.453000", "115429.453000", "115429.453000", "115429.468000", "115429.468000", "115429.468000", "115429.468000", "115429.468000", "115429.468000", "115429.468000", "115429.468000", "115429.484000", "115429.484000", "115429.484000", "115429.484000", "115429.484000", "115429.484000", "115429.484000", "115429.500000", "115453.140000", "115453.140000", "115453.140000", "115453.140000", "115453.156000", "115453.156000", "115453.156000", "115453.156000", "115453.156000", "115453.156000", "115453.156000", "115453.171000", "115453.171000", "115453.171000", "115453.171000", "115453.171000", "115453.171000", "115453.187000", "115453.187000"],
      "InstanceCreationTime": ["114949.484000", "114949.484000", "114949.500000", "114949.500000", "114949.500000", "114949.500000", "114949.500000", "114949.500000", "114949.500000", "114949.515000", "114949.515000", "114949.515000", "114949.515000", "114949.515000", "114949.515000", "114949.531000", "114949.531000", "114949.531000", "114949.531000", "114949.546000", "114949.546000", "114949.546000", "114949.546000", "114949.546000", "114949.546000", "114949.546000", "114949.562000", "114949.562000", "114949.562000", "114949.562000", "114949.562000", "115009.453000", "115009.453000", "115009.453000", "115009.453000", "115009.468000", "115009.468000", "115009.468000", "115009.468000", "115009.468000", "115009.468000", "115009.468000", "115009.484000", "115009.484000", "115009.484000", "115009.484000", "115009.484000", "115009.484000", "115009.484000", "115009.484000", "115009.500000", "115029.453000", "115029.453000", "115029.453000", "115029.453000", "115029.468000", "115029.468000", "115029.468000", "115029.468000", "115029.468000", "115029.468000", "115029.484000", "115029.484000", "115029.484000", "115029.484000", "115029.484000", "115029.484000", "115029.484000", "115029.484000", "115029.500000", "115029.500000", "115049.453000", "115049.453000", "115049.453000", "115049.453000", "115049.468000", "115049.468000", "115049.468000", "115049.468000", "115049.468000", "115049.468000", "115049.468000", "115049.468000", "115049.484000", "115049.484000", "115049.484000", "115049.484000", "115049.500000", "115049.500000", "115049.500000", "115049.500000", "115109.453000", "115109.453000", "115109.453000", "115109.453000", "115109.468000", "115109.468000", "115109.468000", "115109.468000", "115109.468000", "115109.468000", "115109.468000", "115109.468000", "115109.484000", "115109.484000", "115109.484000", "115109.484000", "115109.484000", "115109.500000", "115109.500000", "115109.500000", "115129.453000", "115129.453000", "115129.453000", "115129.453000", "115129.468000", "115129.468000", "115129.468000", "115129.468000", "115129.468000", "115129.468000", "115129.468000", "115129.484000", "115129.484000", "115129.484000", "115129.484000", "115129.484000", "115129.484000", "115129.484000", "115129.500000", "115129.500000", "115149.453000", "115149.453000", "115149.453000", "115149.453000", "115149.468000", "115149.468000", "115149.468000", "115149.468000", "115149.468000", "115149.468000", "115149.468000", "115149.468000", "115149.484000", "115149.484000", "115149.484000", "115149.484000", "115149.484000", "115149.484000", "115149.484000", "115149.500000", "115209.453000", "115209.453000", "115209.453000", "115209.453000", "115209.468000", "115209.468000", "115209.468000", "115209.468000", "115209.468000", "115209.468000", "115209.484000", "115209.484000", "115209.484000", "115209.484000", "115209.484000", "115209.484000", "115209.484000", "115209.500000", "115209.500000", "115209.500000", "115229.453000", "115229.453000", "115229.453000", "115229.453000", "115229.468000", "115229.468000", "115229.468000", "115229.468000", "115229.468000", "115229.468000", "115229.484000", "115229.484000", "115229.484000", "115229.484000", "115229.484000", "115229.484000", "115229.484000", "115229.500000", "115229.500000", "115229.500000", "115249.453000", "115249.453000", "115249.453000", "115249.453000", "115249.468000", "115249.468000", "115249.468000", "115249.468000", "115249.468000", "115249.468000", "115249.468000", "115249.484000", "115249.484000", "115249.484000", "115249.484000", "115249.484000", "115249.484000", "115249.484000", "115249.484000", "115249.500000", "115309.453000", "115309.453000", "115309.453000", "115309.468000", "115309.468000", "115309.468000", "115309.468000", "115309.468000", "115309.468000", "115309.468000", "115309.484000", "115309.484000", "115309.484000", "115309.484000", "115309.484000", "115309.484000", "115309.484000", "115309.484000", "115309.500000", "115309.500000", "115329.453000", "115329.453000", "115329.453000", "115329.453000", "115329.468000", "115329.468000", "115329.468000", "115329.468000", "115329.468000", "115329.468000", "115329.468000", "115329.468000", "115329.484000", "115329.484000", "115329.484000", "115329.484000", "115329.484000", "115329.484000", "115329.500000", "115329.500000", "115349.453000", "115349.453000", "115349.453000", "115349.453000", "115349.468000", "115349.468000", "115349.468000", "115349.468000", "115349.468000", "115349.468000", "115349.468000", "115349.484000", "115349.484000", "115349.484000", "115349.484000", "115349.484000", "115349.484000", "115349.484000", "115349.484000", "115349.500000", "115409.453000", "115409.453000", "115409.453000", "115409.453000", "115409.468000", "115409.468000", "115409.468000", "115409.468000", "115409.468000", "115409.468000", "115409.484000", "115409.484000", "115409.484000", "115409.484000", "115409.500000", "115409.500000", "115409.500000", "115409.500000", "115409.500000", "115409.500000", "115429.453000", "115429.453000", "115429.453000", "115429.453000", "115429.468000", "115429.468000", "115429.468000", "115429.468000", "115429.468000", "115429.468000", "115429.468000", "115429.468000", "115429.484000", "115429.484000", "115429.484000", "115429.484000", "115429.484000", "115429.484000", "115429.484000", "115429.500000", "115453.140000", "115453.140000", "115453.140000", "115453.140000", "115453.156000", "115453.156000", "115453.156000", "115453.156000", "115453.156000", "115453.156000", "115453.156000", "115453.171000", "115453.171000", "115453.171000", "115453.171000", "115453.171000", "115453.171000", "115453.187000", "115453.187000"],
      "InstanceNumber": [1, 2, 3, 4, 5, 6, 7, 8, 9, 10, 11, 12, 13, 14, 15, 16, 17, 18, 19, 20, 21, 22, 23, 24, 25, 26, 27, 28, 29, 30, 31, 32, 33, 34, 35, 36, 37, 38, 39, 40, 41, 42, 43, 44, 45, 46, 47, 48, 49, 50, 51, 52, 53, 54, 55, 56, 57, 58, 59, 60, 61, 62, 63, 64, 65, 66, 67, 68, 69, 70, 71, 72, 73, 74, 75, 76, 77, 78, 79, 80, 81, 82, 83, 84, 85, 86, 87, 88, 89, 90, 91, 92, 93, 94, 95, 96, 97, 98, 99, 100, 101, 102, 103, 104, 105, 106, 107, 108, 109, 110, 111, 112, 113, 114, 115, 116, 117, 118, 119, 120, 121, 122, 123, 124, 125, 126, 127, 128, 129, 130, 131, 132, 133, 134, 135, 136, 137, 138, 139, 140, 141, 142, 143, 144, 145, 146, 147, 148, 149, 150, 151, 152, 153, 154, 155, 156, 157, 158, 159, 160, 161, 162, 163, 164, 165, 166, 167, 168, 169, 170, 171, 172, 173, 174, 175, 176, 177, 178, 179, 180, 181, 182, 183, 184, 185, 186, 187, 188, 189, 190, 191, 192, 193, 194, 195, 196, 197, 198, 199, 200, 201, 202, 203, 204, 205, 206, 207, 208, 209, 210, 211, 212, 213, 214, 215, 216, 217, 218, 219, 220, 221, 222, 223, 224, 225, 226, 227, 228, 229, 230, 231, 232, 233, 234, 235, 236, 237, 238, 239, 240, 241, 242, 243, 244, 245, 246, 247, 248, 249, 250, 251, 252, 253, 254, 255, 256, 257, 258, 259, 260, 261, 262, 263, 264, 265, 266, 267, 268, 269, 270, 271, 272, 273, 274, 275, 276, 277, 278, 279, 280, 281, 282, 283, 284, 285, 286, 287, 288, 289, 290, 291, 292, 293, 294, 295, 296, 297, 298, 299, 300, 301, 302, 303, 304, 305, 306, 307, 308, 309, 310, 311, 312, 313, 314, 315, 316, 317, 318, 319, 320, 321, 322, 323, 324, 325, 326, 327, 328, 329, 330],
      "LargestImagePixelValue": [2273, 2249, 2245, 2208, 2224, 2231, 2207, 2230, 2221, 2235, 2198, 2212, 2198, 2224, 2208, 2176, 2205, 2226, 2223, 2233, 2183, 2188, 2196, 2201, 2194, 2180, 2210, 2200, 2232, 2226, 2189, 2199, 2234, 2232, 2205, 2202, 2229, 2235, 2235, 2211, 2207, 2212, 2194, 2225, 2220, 2214, 2216, 2234, 2238, 2227, 2211, 2237, 2220, 2227, 2219, 2202, 2220, 2214, 2220, 2214, 2212, 2244, 2222, 2234, 2234, 2217, 2213, 2221, 2216, 2223, 2206, 2200, 2197, 2217, 2210, 2192, 2220, 2237, 2209, 2214, 2205, 2200, 2216, 2225, 2185, 2206, 2196, 2220, 2237, 2224, 2213, 2192, 2220, 2230, 2204, 2192, 2227, 2218, 2221, 2193, 2194, 2198, 2212, 2219, 2239, 2213, 2239, 2198, 2223, 2227, 2208, 2231, 2219, 2225, 2200, 2201, 2222, 2206, 2231, 2235, 2232, 2242, 2246, 2214, 2206, 2224, 2230, 2206, 2235, 2227, 2194, 2209, 2255, 2218, 2220, 2228, 2234, 2217, 2226, 2209, 2201, 2237, 2210, 2199, 2225, 2193, 2217, 2220, 2210, 2217, 2216, 2200, 2210, 2234, 2215, 2201, 2232, 2230, 2237, 2211, 2214, 2194, 2231, 2219, 2247, 2221, 2232, 2242, 2220, 2229, 2216, 2238, 2222, 2219, 2232, 2241, 2221, 2223, 2242, 2238, 2218, 2233, 2237, 2221, 2249, 2219, 2229, 2229, 2235, 2218, 2234, 2215, 2249, 2236, 2227, 2208, 2241, 2235, 2227, 2236, 2211, 2222, 2237, 2271, 2222, 2240, 2222, 2230, 2229, 2232, 2202, 2232, 2219, 2209, 2208, 2224, 2215, 2233, 2223, 2203, 2207, 2228, 2200, 2222, 2219, 2228, 2215, 2248, 2213, 2223, 2243, 2221, 2211, 2221, 2233, 2192, 2236, 2232, 2207, 2241, 2236, 2216, 2282, 2225, 2225, 2205, 2231, 2219, 2240, 2251, 2218, 2237, 2230, 2225, 2226, 2212, 2204, 2227, 2232, 2213, 2218, 2213, 2216, 2188, 2220, 2194, 2214, 2235, 2199, 2225, 2200, 2205, 2226, 2230, 2221, 2202, 2211, 2229, 2225, 2206, 2213, 2225, 2218, 2203, 2236, 2224, 2225, 2214, 2211, 2223, 2214, 2225, 2224, 2245, 2227, 2227, 2234, 2225, 2226, 2241, 2212, 2226, 2201, 2219, 2207, 2233, 2220, 2236, 2216, 2223, 2247, 2227, 2223, 2214, 2230, 2230, 2220, 2216, 2223, 2229, 2207, 2224, 2202, 2215, 2194, 2227, 2207, 2230, 2211, 2219],
      "WindowCenter": [439.0, 439.0, 439.0, 439.0, 439.0, 439.0, 438.0, 438.0, 437.0, 437.0, 437.0, 438.0, 438.0, 439.0, 439.0, 439.0, 438.0, 438.0, 438.0, 439.0, 439.0, 438.0, 438.0, 438.0, 438.0, 438.0, 438.0, 439.0, 439.0, 440.0, 439.0, 439.0, 439.0, 439.0, 439.0, 439.0, 439.0, 440.0, 440.0, 439.0, 439.0, 438.0, 437.0, 436.0, 436.0, 437.0, 438.0, 438.0, 438.0, 438.0, 438.0, 438.0, 437.0, 437.0, 438.0, 437.0, 438.0, 438.0, 438.0, 438.0, 438.0, 438.0, 438.0, 438.0, 438.0, 439.0, 439.0, 440.0, 439.0, 439.0, 439.0, 439.0, 439.0, 438.0, 438.0, 437.0, 437.0, 437.0, 437.0, 438.0, 439.0, 439.0, 439.0, 438.0, 438.0, 438.0, 438.0, 438.0, 439.0, 439.0, 440.0, 440.0, 440.0, 440.0, 439.0, 438.0, 438.0, 438.0, 438.0, 439.0, 439.0, 439.0, 439.0, 438.0, 438.0, 438.0, 438.0, 437.0, 437.0, 438.0, 438.0, 439.0, 439.0, 439.0, 439.0, 439.0, 439.0, 439.0, 439.0, 440.0, 440.0, 440.0, 441.0, 441.0, 441.0, 441.0, 440.0, 439.0, 439.0, 439.0, 438.0, 438.0, 438.0, 438.0, 438.0, 438.0, 438.0, 439.0, 439.0, 439.0, 439.0, 439.0, 439.0, 439.0, 439.0, 439.0, 440.0, 441.0, 441.0, 440.0, 440.0, 439.0, 439.0, 440.0, 441.0, 441.0, 441.0, 441.0, 440.0, 439.0, 438.0, 438.0, 438.0, 438.0, 438.0, 438.0, 438.0, 438.0, 438.0, 438.0, 438.0, 439.0, 440.0, 439.0, 438.0, 438.0, 438.0, 438.0, 438.0, 437.0, 437.0, 438.0, 440.0, 441.0, 441.0, 440.0, 439.0, 438.0, 438.0, 438.0, 438.0, 438.0, 438.0, 438.0, 438.0, 438.0, 438.0, 438.0, 438.0, 439.0, 438.0, 438.0, 438.0, 438.0, 438.0, 439.0, 440.0, 440.0, 440.0, 440.0, 439.0, 440.0, 440.0, 440.0, 440.0, 440.0, 440.0, 441.0, 440.0, 440.0, 440.0, 439.0, 439.0, 439.0, 439.0, 438.0, 438.0, 438.0, 438.0, 438.0, 440.0, 440.0, 440.0, 440.0, 439.0, 438.0, 438.0, 438.0, 438.0, 438.0, 439.0, 439.0, 440.0, 440.0, 440.0, 439.0, 439.0, 438.0, 438.0, 438.0, 438.0, 438.0, 438.0, 438.0, 438.0, 438.0, 438.0, 439.0, 439.0, 439.0, 438.0, 438.0, 438.0, 437.0, 438.0, 438.0, 440.0, 441.0, 441.0, 441.0, 440.0, 440.0, 440.0, 439.0, 439.0, 439.0, 439.0, 439.0, 440.0, 441.0, 441.0, 441.0, 439.0, 439.0, 438.0, 438.0, 438.0, 439.0, 439.0, 439.0, 440.0, 439.0, 439.0, 439.0, 439.0, 440.0, 440.0, 441.0, 441.0, 440.0, 439.0, 438.0, 438.0, 438.0, 437.0, 438.0, 438.0, 438.0, 439.0, 440.0, 440.0, 440.0, 440.0, 439.0, 439.0, 438.0, 438.0, 438.0, 439.0, 440.0, 440.0, 441.0, 441.0, 441.0, 440.0, 441.0, 441.0, 441.0, 441.0, 441.0],
