{
  "AcquisitionMatrixPE": 104,
  "AcquisitionNumber": 1,
  "AcquisitionTime": "11:19:52.380000",
  "BandwidthPerPixelPhaseEncode": 43.054,
  "BaseResolution": 104,
  "CoilString": "C:E1_2",
  "ConversionSoftware": "dcm2niix",
  "ConversionSoftwareVersion": "v1.0.20191031",
  "DerivedVendorReportedEchoSpacing": 0.000669999,
  "DeviceSerialNumber": "18932",
  "DwellTime": 2.8e-06,
  "EchoTime": 0.02,
  "EffectiveEchoSpacing": 0.000223333,
  "FlipAngle": 30,
  "ImageComments": "Unaliased_MB2_PE2",
  "ImageOrientationPatientDICOM": [1, 0, 0, 0, 0.991216, -0.132256],
  "ImageType": [
    "ORIGINAL",
    "PRIMARY",
    "M",
    "MB",
    "ND",
    "MOSAIC"
],
  "ImagingFrequency": 297.229,
  "InPlanePhaseEncodingDirectionDICOM": "COL",
  "InstitutionAddress": "Richmond_Street_North_1151_London_409EF2_Ontario_CA_N6A_5B7",
  "InstitutionName": "Robarts_Reserch_Institute",
  "InstitutionalDepartmentName": "Department",
  "MRAcquisitionType": "2D",
  "MagneticFieldStrength": 6.98,
  "Manufacturer": "Siemens",
  "ManufacturersModelName": "Investigational_Device_7T",
  "Modality": "MR",
  "MultibandAccelerationFactor": 2,
  "ParallelReductionFactorInPlane": 3,
  "PartialFourier": 0.875,
  "PatientPosition": "HFS",
  "PercentPhaseFOV": 100,
  "PhaseEncodingDirection": "j-",
  "PhaseEncodingSteps": 91,
  "PhaseResolution": 1,
  "PixelBandwidth": 1717,
  "ProcedureStepDescription": "Diedrichsen_SeqRep4",
  "ProtocolName": "mbep2d_bold_mb2_p3_AP_2iso",
  "PulseSequenceDetails": "%CustomerSeq%_cmrr_mbep2d_bold",
  "ReceiveCoilName": "CFMM_8Tx32Rx",
  "ReconMatrixPE": 104,
  "RefLinesPE": 36,
  "RepetitionTime": 1,
  "ScanOptions": "PFP_FS",
  "ScanningSequence": "EP",
  "SequenceName": "epfid2d1_104",
  "SequenceVariant": "SK_SS",
  "SeriesDescription": "mbep2d_bold_mb2_p3_AP_2iso",
  "SeriesNumber": 17,
  "ShimSetting": [13, 2083, 18, 1313, 185, 69, 53, -49],
  "SliceThickness": 2,
  "SliceTiming": [0, 0.2275, 0.455, 0.6825, 0.9125, 0.1375, 0.365, 0.5925, 0.82, 0.045, 0.2725, 0.5025, 0.73, 0.9575, 0.1825, 0.41, 0.6375, 0.865, 0.09, 0.32, 0.5475, 0.775, 0, 0.2275, 0.455, 0.6825, 0.9125, 0.1375, 0.365, 0.5925, 0.82, 0.045, 0.2725, 0.5025, 0.73, 0.9575, 0.1825, 0.41, 0.6375, 0.865, 0.09, 0.32, 0.5475, 0.775],
  "SoftwareVersions": "syngo_MR_B17",
  "SpacingBetweenSlices": 2,
  "StationName": "MASTER",
  "TaskName": "dsp",
  "TotalReadoutTime": 0.0230033,
  "TxRefAmp": 120,
  "dcmmeta_affine": [
    [-2.0, 0.0, 0.0, 105.4527816772461],
    [0.0, 1.9824310541152954, -0.2645128071308136, -100.50387573242188],
    [0.0, 0.2645128071308136, 1.9824310541152954, -20.56864356994629],
    [0.0, 0.0, 0.0, 1.0]
],
  "dcmmeta_reorient_transform": [
    [0.0, -1.0, 0.0, 103.0],
    [1.0, 0.0, 0.0, 0.0],
    [0.0, 0.0, 1.0, 0.0],
    [0.0, 0.0, 0.0, 1.0]
],
  "dcmmeta_shape": [104, 104, 44, 330],
  "dcmmeta_slice_dim": 2,
  "dcmmeta_version": 0.6,
  "global": {
    "const": {
      "AcquisitionMatrix": [104, 0, 0, 104],
      "AngioFlag": "N",
      "BitsAllocated": 16,
      "BitsStored": 12,
      "Columns": 728,
      "EchoNumbers": 1,
      "EchoTime": 20.0,
      "EchoTrainLength": 1,
      "FlipAngle": 30.0,
      "HighBit": 11,
      "ImageOrientationPatient": [1.0, 0.0, 0.0, 0.0, 0.99121553937119, -0.132256396855],
      "ImagePositionPatient": [-729.45278453827, -722.20502355071, 89.20416522268],
      "ImageType": [
        "ORIGINAL",
        "PRIMARY",
        "M",
        "MB",
        "ND",
        "MOSAIC"
],
      "ImagedNucleus": "1H",
      "ImagingFrequency": 297.228803,
      "InPlanePhaseEncodingDirection": "COL",
      "MRAcquisitionType": "2D",
      "MagneticFieldStrength": 6.98,
      "Manufacturer": "SIEMENS",
      "ManufacturerModelName": "Investigational_Device_7T",
      "Modality": "MR",
      "NumberOfAverages": 1.0,
      "NumberOfPhaseEncodingSteps": 91,
      "PercentPhaseFieldOfView": 100.0,
      "PercentSampling": 100.0,
      "PerformedProcedureStepStartTime": "104742.937000",
      "PhotometricInterpretation": "MONOCHROME2",
      "PixelBandwidth": 1717.0,
      "PixelRepresentation": 0,
      "PixelSpacing": [2.0, 2.0],
      "ProtocolName": "mbep2d_bold_mb2_p3_AP 2iso",
      "RepetitionTime": 1000.0,
      "Rows": 728,
      "SAR": 0.0,
      "SamplesPerPixel": 1,
      "ScanOptions": [
        "PFP",
        "FS"
],
      "ScanningSequence": "EP",
      "SequenceName": "epfid2d1_104",
      "SequenceVariant": [
        "SK",
        "SS"
],
      "SeriesDescription": "mbep2d_bold_mb2_p3_AP 2iso",
      "SeriesNumber": 17,
      "SeriesTime": "112014.546000",
      "SliceLocation": -7.0956794600561,
      "SliceThickness": 2.0,
      "SmallestImagePixelValue": 0,
      "SoftwareVersions": "syngo MR B17",
      "SpacingBetweenSlices": 2.000000032963,
      "SpecificCharacterSet": "ISO_IR 100",
      "StudyID": "1",
      "StudyTime": "104742.875000",
      "TransmitCoilName": "CFMM_8Tx32Rx",
      "VariableFlipAngleFlag": "N",
      "WindowCenterWidthExplanation": "Algo1",
      "dBdt": 0.0},
    "slices": {}
  },
  "time": {
    "samples": {
      "AcquisitionNumber": [1, 2, 3, 4, 5, 6, 7, 8, 9, 10, 11, 12, 13, 14, 15, 16, 17, 18, 19, 20, 21, 22, 23, 24, 25, 26, 27, 28, 29, 30, 31, 32, 33, 34, 35, 36, 37, 38, 39, 40, 41, 42, 43, 44, 45, 46, 47, 48, 49, 50, 51, 52, 53, 54, 55, 56, 57, 58, 59, 60, 61, 62, 63, 64, 65, 66, 67, 68, 69, 70, 71, 72, 73, 74, 75, 76, 77, 78, 79, 80, 81, 82, 83, 84, 85, 86, 87, 88, 89, 90, 91, 92, 93, 94, 95, 96, 97, 98, 99, 100, 101, 102, 103, 104, 105, 106, 107, 108, 109, 110, 111, 112, 113, 114, 115, 116, 117, 118, 119, 120, 121, 122, 123, 124, 125, 126, 127, 128, 129, 130, 131, 132, 133, 134, 135, 136, 137, 138, 139, 140, 141, 142, 143, 144, 145, 146, 147, 148, 149, 150, 151, 152, 153, 154, 155, 156, 157, 158, 159, 160, 161, 162, 163, 164, 165, 166, 167, 168, 169, 170, 171, 172, 173, 174, 175, 176, 177, 178, 179, 180, 181, 182, 183, 184, 185, 186, 187, 188, 189, 190, 191, 192, 193, 194, 195, 196, 197, 198, 199, 200, 201, 202, 203, 204, 205, 206, 207, 208, 209, 210, 211, 212, 213, 214, 215, 216, 217, 218, 219, 220, 221, 222, 223, 224, 225, 226, 227, 228, 229, 230, 231, 232, 233, 234, 235, 236, 237, 238, 239, 240, 241, 242, 243, 244, 245, 246, 247, 248, 249, 250, 251, 252, 253, 254, 255, 256, 257, 258, 259, 260, 261, 262, 263, 264, 265, 266, 267, 268, 269, 270, 271, 272, 273, 274, 275, 276, 277, 278, 279, 280, 281, 282, 283, 284, 285, 286, 287, 288, 289, 290, 291, 292, 293, 294, 295, 296, 297, 298, 299, 300, 301, 302, 303, 304, 305, 306, 307, 308, 309, 310, 311, 312, 313, 314, 315, 316, 317, 318, 319, 320, 321, 322, 323, 324, 325, 326, 327, 328, 329, 330],
      "AcquisitionTime": ["111952.380000", "111953.382500", "111954.387500", "111955.392500", "111956.395000", "111957.400000", "111958.402500", "111959.407500", "112000.412500", "112001.415000", "112002.420000", "112003.422500", "112004.427500", "112005.432500", "112006.435000", "112007.440000", "112008.445000", "112009.447500", "112010.452500", "112011.455000", "112012.460000", "112013.465000", "112014.467500", "112015.472500", "112016.475000", "112017.480000", "112018.485000", "112019.487500", "112020.492500", "112021.495000", "112022.500000", "112023.505000", "112024.507500", "112025.512500", "112026.515000", "112027.520000", "112028.525000", "112029.527500", "112030.532500", "112031.535000", "112032.540000", "112033.545000", "112034.547500", "112035.552500", "112036.555000", "112037.560000", "112038.565000", "112039.567500", "112040.572500", "112041.577500", "112042.580000", "112043.585000", "112044.587500", "112045.592500", "112046.597500", "112047.600000", "112048.605000", "112049.607500", "112050.612500", "112051.617500", "112052.620000", "112053.625000", "112054.627500", "112055.632500", "112056.637500", "112057.640000", "112058.645000", "112059.647500", "112100.652500", "112101.657500", "112102.660000", "112103.665000", "112104.667500", "112105.672500", "112106.677500", "112107.680000", "112108.685000", "112109.690000", "112110.692500", "112111.697500", "112112.700000", "112113.705000", "112114.710000", "112115.712500", "112116.717500", "112117.720000", "112118.725000", "112119.730000", "112120.732500", "112121.737500", "112122.740000", "112123.745000", "112124.750000", "112125.752500", "112126.757500", "112127.760000", "112128.765000", "112129.770000", "112130.772500", "112131.777500", "112132.780000", "112133.785000", "112134.790000", "112135.792500", "112136.797500", "112137.800000", "112138.805000", "112139.810000", "112140.812500", "112141.817500", "112142.822500", "112143.825000", "112144.830000", "112145.832500", "112146.837500", "112147.842500", "112148.845000", "112149.850000", "112150.852500", "112151.857500", "112152.862500", "112153.865000", "112154.870000", "112155.872500", "112156.877500", "112157.882500", "112158.885000", "112159.890000", "112200.892500", "112201.897500", "112202.902500", "112203.905000", "112204.910000", "112205.912500", "112206.917500", "112207.922500", "112208.925000", "112209.930000", "112210.935000", "112211.937500", "112212.942500", "112213.945000", "112214.950000", "112215.955000", "112216.957500", "112217.962500", "112218.965000", "112219.970000", "112220.975000", "112221.977500", "112222.982500", "112223.985000", "112224.990000", "112225.995000", "112226.997500", "112228.002500", "112229.005000", "112230.010000", "112231.015000", "112232.017500", "112233.022500", "112234.025000", "112235.030000", "112236.035000", "112237.037500", "112238.042500", "112239.045000", "112240.050000", "112241.055000", "112242.057500", "112243.062500", "112244.067500", "112245.070000", "112246.075000", "112247.077500", "112248.082500", "112249.087500", "112250.090000", "112251.095000", "112252.097500", "112253.102500", "112254.107500", "112255.110000", "112256.115000", "112257.117500", "112258.122500", "112259.127500", "112300.130000", "112301.135000", "112302.137500", "112303.142500", "112304.147500", "112305.150000", "112306.155000", "112307.157500", "112308.162500", "112309.167500", "112310.170000", "112311.175000", "112312.177500", "112313.182500", "112314.187500", "112315.190000", "112316.195000", "112317.200000", "112318.202500", "112319.207500", "112320.210000", "112321.215000", "112322.220000", "112323.222500", "112324.227500", "112325.230000", "112326.235000", "112327.240000", "112328.242500", "112329.247500", "112330.250000", "112331.255000", "112332.260000", "112333.262500", "112334.267500", "112335.270000", "112336.275000", "112337.280000", "112338.282500", "112339.287500", "112340.290000", "112341.295000", "112342.300000", "112343.302500", "112344.307500", "112345.312500", "112346.315000", "112347.320000", "112348.322500", "112349.327500", "112350.332500", "112351.335000", "112352.340000", "112353.342500", "112354.347500", "112355.352500", "112356.355000", "112357.360000", "112358.362500", "112359.367500", "112400.372500", "112401.375000", "112402.380000", "112403.382500", "112404.387500", "112405.392500", "112406.395000", "112407.400000", "112408.402500", "112409.407500", "112410.412500", "112411.415000", "112412.420000", "112413.422500", "112414.427500", "112415.432500", "112416.435000", "112417.440000", "112418.445000", "112419.447500", "112420.452500", "112421.455000", "112422.460000", "112423.465000", "112424.467500", "112425.472500", "112426.475000", "112427.480000", "112428.485000", "112429.487500", "112430.492500", "112431.495000", "112432.500000", "112433.505000", "112434.507500", "112435.512500", "112436.515000", "112437.520000", "112438.525000", "112439.527500", "112440.532500", "112441.535000", "112442.540000", "112443.545000", "112444.547500", "112445.552500", "112446.555000", "112447.560000", "112448.565000", "112449.567500", "112450.572500", "112451.577500", "112452.580000", "112453.585000", "112454.587500", "112455.592500", "112456.597500", "112457.600000", "112458.605000", "112459.607500", "112500.612500", "112501.617500", "112502.620000", "112503.625000", "112504.627500", "112505.632500", "112506.637500", "112507.640000", "112508.645000", "112509.647500", "112510.652500", "112511.657500", "112512.660000", "112513.665000", "112514.667500", "112515.672500", "112516.677500", "112517.680000", "112518.685000", "112519.690000", "112520.692500", "112521.697500", "112522.700000"],
      "ContentTime": ["112014.546000", "112014.546000", "112014.546000", "112014.546000", "112014.546000", "112014.546000", "112014.546000", "112014.562000", "112014.562000", "112014.562000", "112014.562000", "112014.562000", "112014.562000", "112014.562000", "112014.578000", "112014.578000", "112014.578000", "112014.578000", "112014.578000", "112014.578000", "112014.578000", "112034.500000", "112034.500000", "112034.515000", "112034.515000", "112034.515000", "112034.515000", "112034.515000", "112034.515000", "112034.515000", "112034.515000", "112034.531000", "112034.531000", "112034.531000", "112034.531000", "112034.531000", "112034.531000", "112034.531000", "112034.546000", "112034.546000", "112034.546000", "112054.500000", "112054.500000", "112054.500000", "112054.500000", "112054.515000", "112054.515000", "112054.515000", "112054.515000", "112054.515000", "112054.515000", "112054.515000", "112054.515000", "112054.531000", "112054.531000", "112054.531000", "112054.531000", "112054.531000", "112054.546000", "112054.546000", "112054.546000", "112114.500000", "112114.500000", "112114.500000", "112114.500000", "112114.515000", "112114.515000", "112114.515000", "112114.515000", "112114.515000", "112114.531000", "112114.531000", "112114.531000", "112114.531000", "112114.531000", "112114.531000", "112114.531000", "112114.531000", "112114.546000", "112114.546000", "112114.546000", "112134.500000", "112134.500000", "112134.500000", "112134.500000", "112134.515000", "112134.515000", "112134.515000", "112134.515000", "112134.515000", "112134.515000", "112134.531000", "112134.531000", "112134.531000", "112134.531000", "112134.531000", "112134.546000", "112134.546000", "112134.546000", "112134.546000", "112134.546000", "112154.500000", "112154.500000", "112154.500000", "112154.500000", "112154.515000", "112154.515000", "112154.515000", "112154.515000", "112154.515000", "112154.515000", "112154.515000", "112154.531000", "112154.531000", "112154.531000", "112154.531000", "112154.531000", "112154.546000", "112154.546000", "112154.546000", "112154.562000", "112214.500000", "112214.500000", "112214.500000", "112214.500000", "112214.515000", "112214.515000", "112214.515000", "112214.515000", "112214.515000", "112214.515000", "112214.515000", "112214.515000", "112214.531000", "112214.531000", "112214.531000", "112214.531000", "112214.531000", "112214.531000", "112214.531000", "112214.546000", "112234.500000", "112234.500000", "112234.500000", "112234.500000", "112234.515000", "112234.515000", "112234.515000", "112234.515000", "112234.515000", "112234.531000", "112234.531000", "112234.531000", "112234.531000", "112234.531000", "112234.531000", "112234.531000", "112234.531000", "112234.546000", "112234.546000", "112234.546000", "112254.500000", "112254.500000", "112254.500000", "112254.500000", "112254.515000", "112254.515000", "112254.515000", "112254.515000", "112254.515000", "112254.531000", "112254.531000", "112254.531000", "112254.531000", "112254.531000", "112254.546000", "112254.546000", "112254.546000", "112254.546000", "112254.546000", "112254.546000", "112314.500000", "112314.500000", "112314.500000", "112314.500000", "112314.515000", "112314.515000", "112314.515000", "112314.515000", "112314.515000", "112314.515000", "112314.531000", "112314.531000", "112314.531000", "112314.531000", "112314.531000", "112314.531000", "112314.531000", "112314.531000", "112314.546000", "112314.546000", "112334.500000", "112334.500000", "112334.500000", "112334.515000", "112334.515000", "112334.515000", "112334.515000", "112334.515000", "112334.515000", "112334.515000", "112334.531000", "112334.531000", "112334.531000", "112334.531000", "112334.531000", "112334.531000", "112334.531000", "112334.546000", "112334.546000", "112334.546000", "112354.500000", "112354.500000", "112354.500000", "112354.500000", "112354.515000", "112354.515000", "112354.515000", "112354.515000", "112354.515000", "112354.515000", "112354.531000", "112354.531000", "112354.531000", "112354.531000", "112354.531000", "112354.531000", "112354.531000", "112354.546000", "112354.546000", "112354.546000", "112414.500000", "112414.500000", "112414.500000", "112414.500000", "112414.515000", "112414.515000", "112414.515000", "112414.515000", "112414.515000", "112414.515000", "112414.515000", "112414.531000", "112414.531000", "112414.531000", "112414.531000", "112414.531000", "112414.531000", "112414.531000", "112414.546000", "112414.546000", "112434.500000", "112434.500000", "112434.515000", "112434.515000", "112434.515000", "112434.515000", "112434.515000", "112434.515000", "112434.515000", "112434.515000", "112434.531000", "112434.531000", "112434.531000", "112434.531000", "112434.531000", "112434.531000", "112434.531000", "112434.546000", "112434.546000", "112434.546000", "112454.500000", "112454.500000", "112454.500000", "112454.515000", "112454.515000", "112454.515000", "112454.515000", "112454.515000", "112454.515000", "112454.515000", "112454.531000", "112454.531000", "112454.531000", "112454.531000", "112454.531000", "112454.531000", "112454.531000", "112454.531000", "112454.546000", "112454.546000", "112514.500000", "112514.500000", "112514.500000", "112514.500000", "112514.515000", "112514.515000", "112514.515000", "112514.515000", "112514.515000", "112514.515000", "112514.515000", "112514.531000", "112514.531000", "112514.531000", "112514.531000", "112514.531000", "112514.531000", "112514.531000", "112514.546000", "112514.546000", "112528.218000", "112528.218000", "112528.234000", "112528.234000", "112528.234000", "112528.234000", "112528.250000", "112528.250000", "112528.250000"],
      "InstanceCreationTime": ["112014.546000", "112014.546000", "112014.546000", "112014.546000", "112014.546000", "112014.546000", "112014.546000", "112014.562000", "112014.562000", "112014.562000", "112014.562000", "112014.562000", "112014.562000", "112014.562000", "112014.578000", "112014.578000", "112014.578000", "112014.578000", "112014.578000", "112014.578000", "112014.578000", "112034.500000", "112034.500000", "112034.515000", "112034.515000", "112034.515000", "112034.515000", "112034.515000", "112034.515000", "112034.515000", "112034.515000", "112034.531000", "112034.531000", "112034.531000", "112034.531000", "112034.531000", "112034.531000", "112034.531000", "112034.546000", "112034.546000", "112034.546000", "112054.500000", "112054.500000", "112054.500000", "112054.500000", "112054.515000", "112054.515000", "112054.515000", "112054.515000", "112054.515000", "112054.515000", "112054.515000", "112054.515000", "112054.531000", "112054.531000", "112054.531000", "112054.531000", "112054.531000", "112054.546000", "112054.546000", "112054.546000", "112114.500000", "112114.500000", "112114.500000", "112114.500000", "112114.515000", "112114.515000", "112114.515000", "112114.515000", "112114.515000", "112114.531000", "112114.531000", "112114.531000", "112114.531000", "112114.531000", "112114.531000", "112114.531000", "112114.531000", "112114.546000", "112114.546000", "112114.546000", "112134.500000", "112134.500000", "112134.500000", "112134.500000", "112134.515000", "112134.515000", "112134.515000", "112134.515000", "112134.515000", "112134.515000", "112134.531000", "112134.531000", "112134.531000", "112134.531000", "112134.531000", "112134.546000", "112134.546000", "112134.546000", "112134.546000", "112134.546000", "112154.500000", "112154.500000", "112154.500000", "112154.500000", "112154.515000", "112154.515000", "112154.515000", "112154.515000", "112154.515000", "112154.515000", "112154.515000", "112154.531000", "112154.531000", "112154.531000", "112154.531000", "112154.531000", "112154.546000", "112154.546000", "112154.546000", "112154.562000", "112214.500000", "112214.500000", "112214.500000", "112214.500000", "112214.515000", "112214.515000", "112214.515000", "112214.515000", "112214.515000", "112214.515000", "112214.515000", "112214.515000", "112214.531000", "112214.531000", "112214.531000", "112214.531000", "112214.531000", "112214.531000", "112214.531000", "112214.546000", "112234.500000", "112234.500000", "112234.500000", "112234.500000", "112234.515000", "112234.515000", "112234.515000", "112234.515000", "112234.515000", "112234.531000", "112234.531000", "112234.531000", "112234.531000", "112234.531000", "112234.531000", "112234.531000", "112234.531000", "112234.546000", "112234.546000", "112234.546000", "112254.500000", "112254.500000", "112254.500000", "112254.500000", "112254.515000", "112254.515000", "112254.515000", "112254.515000", "112254.515000", "112254.531000", "112254.531000", "112254.531000", "112254.531000", "112254.531000", "112254.546000", "112254.546000", "112254.546000", "112254.546000", "112254.546000", "112254.546000", "112314.500000", "112314.500000", "112314.500000", "112314.500000", "112314.515000", "112314.515000", "112314.515000", "112314.515000", "112314.515000", "112314.515000", "112314.531000", "112314.531000", "112314.531000", "112314.531000", "112314.531000", "112314.531000", "112314.531000", "112314.531000", "112314.546000", "112314.546000", "112334.500000", "112334.500000", "112334.500000", "112334.515000", "112334.515000", "112334.515000", "112334.515000", "112334.515000", "112334.515000", "112334.515000", "112334.531000", "112334.531000", "112334.531000", "112334.531000", "112334.531000", "112334.531000", "112334.531000", "112334.546000", "112334.546000", "112334.546000", "112354.500000", "112354.500000", "112354.500000", "112354.500000", "112354.515000", "112354.515000", "112354.515000", "112354.515000", "112354.515000", "112354.515000", "112354.531000", "112354.531000", "112354.531000", "112354.531000", "112354.531000", "112354.531000", "112354.531000", "112354.546000", "112354.546000", "112354.546000", "112414.500000", "112414.500000", "112414.500000", "112414.500000", "112414.515000", "112414.515000", "112414.515000", "112414.515000", "112414.515000", "112414.515000", "112414.515000", "112414.531000", "112414.531000", "112414.531000", "112414.531000", "112414.531000", "112414.531000", "112414.531000", "112414.546000", "112414.546000", "112434.500000", "112434.500000", "112434.515000", "112434.515000", "112434.515000", "112434.515000", "112434.515000", "112434.515000", "112434.515000", "112434.515000", "112434.531000", "112434.531000", "112434.531000", "112434.531000", "112434.531000", "112434.531000", "112434.531000", "112434.546000", "112434.546000", "112434.546000", "112454.500000", "112454.500000", "112454.500000", "112454.515000", "112454.515000", "112454.515000", "112454.515000", "112454.515000", "112454.515000", "112454.515000", "112454.531000", "112454.531000", "112454.531000", "112454.531000", "112454.531000", "112454.531000", "112454.531000", "112454.531000", "112454.546000", "112454.546000", "112514.500000", "112514.500000", "112514.500000", "112514.500000", "112514.515000", "112514.515000", "112514.515000", "112514.515000", "112514.515000", "112514.515000", "112514.515000", "112514.531000", "112514.531000", "112514.531000", "112514.531000", "112514.531000", "112514.531000", "112514.531000", "112514.546000", "112514.546000", "112528.218000", "112528.218000", "112528.234000", "112528.234000", "112528.234000", "112528.234000", "112528.250000", "112528.250000", "112528.250000"],
      "InstanceNumber": [1, 2, 3, 4, 5, 6, 7, 8, 9, 10, 11, 12, 13, 14, 15, 16, 17, 18, 19, 20, 21, 22, 23, 24, 25, 26, 27, 28, 29, 30, 31, 32, 33, 34, 35, 36, 37, 38, 39, 40, 41, 42, 43, 44, 45, 46, 47, 48, 49, 50, 51, 52, 53, 54, 55, 56, 57, 58, 59, 60, 61, 62, 63, 64, 65, 66, 67, 68, 69, 70, 71, 72, 73, 74, 75, 76, 77, 78, 79, 80, 81, 82, 83, 84, 85, 86, 87, 88, 89, 90, 91, 92, 93, 94, 95, 96, 97, 98, 99, 100, 101, 102, 103, 104, 105, 106, 107, 108, 109, 110, 111, 112, 113, 114, 115, 116, 117, 118, 119, 120, 121, 122, 123, 124, 125, 126, 127, 128, 129, 130, 131, 132, 133, 134, 135, 136, 137, 138, 139, 140, 141, 142, 143, 144, 145, 146, 147, 148, 149, 150, 151, 152, 153, 154, 155, 156, 157, 158, 159, 160, 161, 162, 163, 164, 165, 166, 167, 168, 169, 170, 171, 172, 173, 174, 175, 176, 177, 178, 179, 180, 181, 182, 183, 184, 185, 186, 187, 188, 189, 190, 191, 192, 193, 194, 195, 196, 197, 198, 199, 200, 201, 202, 203, 204, 205, 206, 207, 208, 209, 210, 211, 212, 213, 214, 215, 216, 217, 218, 219, 220, 221, 222, 223, 224, 225, 226, 227, 228, 229, 230, 231, 232, 233, 234, 235, 236, 237, 238, 239, 240, 241, 242, 243, 244, 245, 246, 247, 248, 249, 250, 251, 252, 253, 254, 255, 256, 257, 258, 259, 260, 261, 262, 263, 264, 265, 266, 267, 268, 269, 270, 271, 272, 273, 274, 275, 276, 277, 278, 279, 280, 281, 282, 283, 284, 285, 286, 287, 288, 289, 290, 291, 292, 293, 294, 295, 296, 297, 298, 299, 300, 301, 302, 303, 304, 305, 306, 307, 308, 309, 310, 311, 312, 313, 314, 315, 316, 317, 318, 319, 320, 321, 322, 323, 324, 325, 326, 327, 328, 329, 330],
      "LargestImagePixelValue": [2377, 2334, 2331, 2341, 2339, 2349, 2296, 2312, 2311, 2321, 2322, 2320, 2311, 2309, 2327, 2315, 2304, 2320, 2317, 2327, 2314, 2319, 2312, 2299, 2341, 2301, 2318, 2333, 2311, 2323, 2312, 2297, 2317, 2316, 2312, 2287, 2293, 2304, 2308, 2320, 2327, 2300, 2310, 2312, 2337, 2329, 2311, 2308, 2349, 2324, 2326, 2316, 2314, 2326, 2320, 2356, 2326, 2329, 2311, 2322, 2329, 2297, 2311, 2330, 2345, 2295, 2292, 2304, 2314, 2316, 2319, 2322, 2307, 2320, 2319, 2310, 2321, 2321, 2350, 2332, 2323, 2330, 2315, 2331, 2329, 2326, 2328, 2316, 2323, 2324, 2329, 2312, 2328, 2324, 2325, 2313, 2324, 2318, 2314, 2322, 2313, 2324, 2314, 2318, 2329, 2326, 2312, 2318, 2304, 2301, 2308, 2292, 2305, 2304, 2292, 2298, 2302, 2304, 2319, 2306, 2305, 2329, 2301, 2321, 2305, 2307, 2329, 2315, 2357, 2322, 2312, 2309, 2323, 2316, 2319, 2300, 2323, 2303, 2318, 2300, 2332, 2283, 2286, 2322, 2318, 2314, 2291, 2301, 2309, 2304, 2311, 2317, 2312, 2308, 2321, 2277, 2271, 2289, 2310, 2305, 2311, 2302, 2304, 2314, 2305, 2281, 2308, 2300, 2285, 2329, 2314, 2303, 2303, 2320, 2334, 2317, 2287, 2284, 2307, 2287, 2287, 2269, 2269, 2266, 2308, 2302, 2268, 2302, 2308, 2300, 2297, 2293, 2284, 2282, 2289, 2293, 2299, 2291, 2331, 2296, 2326, 2295, 2287, 2314, 2287, 2274, 2295, 2274, 2272, 2290, 2299, 2300, 2255, 2319, 2287, 2272, 2274, 2292, 2269, 2283, 2271, 2270, 2271, 2261, 2288, 2246, 2267, 2258, 2267, 2273, 2274, 2251, 2274, 2294, 2296, 2291, 2269, 2303, 2276, 2276, 2267, 2285, 2278, 2281, 2277, 2302, 2238, 2226, 2267, 2261, 2258, 2265, 2225, 2277, 2264, 2264, 2229, 2258, 2258, 2237, 2251, 2242, 2229, 2203, 2245, 2244, 2198, 2237, 2263, 2212, 2236, 2237, 2214, 2244, 2222, 2179, 2199, 2200, 2202, 2170, 2178, 2178, 2132, 2179, 2180, 2108, 2102, 2129, 2139, 2155, 2137, 2133, 2151, 2115, 2155, 2176, 2140, 2152, 2109, 2159, 2154, 2128, 2141, 2129, 2139, 2133, 2094, 2091, 2109, 2160, 2140, 2107, 2114, 2106, 2180, 2129, 2128, 2121, 2156, 2168, 2098, 2145, 2121, 2134, 2144, 2165, 2129, 2128, 2139, 2180],
      "WindowCenter": [444.0, 443.0, 442.0, 442.0, 442.0, 441.0, 440.0, 440.0, 440.0, 440.0, 440.0, 441.0, 441.0, 441.0, 443.0, 444.0, 443.0, 442.0, 441.0, 441.0, 440.0, 441.0, 441.0, 440.0, 440.0, 441.0, 442.0, 443.0, 443.0, 444.0, 444.0, 443.0, 443.0, 442.0, 442.0, 442.0, 442.0, 441.0, 441.0, 440.0, 439.0, 440.0, 441.0, 442.0, 442.0, 442.0, 442.0, 441.0, 441.0, 441.0, 440.0, 440.0, 441.0, 441.0, 442.0, 443.0, 443.0, 442.0, 442.0, 442.0, 442.0, 442.0, 442.0, 442.0, 442.0, 442.0, 442.0, 442.0, 441.0, 442.0, 442.0, 442.0, 442.0, 442.0, 442.0, 442.0, 442.0, 442.0, 442.0, 442.0, 442.0, 441.0, 441.0, 441.0, 441.0, 442.0, 443.0, 444.0, 444.0, 443.0, 442.0, 442.0, 442.0, 441.0, 441.0, 442.0, 444.0, 444.0, 444.0, 442.0, 441.0, 441.0, 441.0, 441.0, 442.0, 444.0, 444.0, 445.0, 445.0, 445.0, 444.0, 444.0, 444.0, 443.0, 442.0, 442.0, 442.0, 442.0, 442.0, 442.0, 442.0, 442.0, 442.0, 442.0, 440.0, 440.0, 441.0, 442.0, 443.0, 444.0, 444.0, 444.0, 443.0, 442.0, 441.0, 440.0, 441.0, 441.0, 442.0, 442.0, 443.0, 443.0, 442.0, 442.0, 443.0, 443.0, 443.0, 442.0, 442.0, 441.0, 441.0, 440.0, 441.0, 441.0, 442.0, 442.0, 443.0, 442.0, 442.0, 442.0, 442.0, 442.0, 442.0, 442.0, 443.0, 443.0, 443.0, 443.0, 443.0, 443.0, 442.0, 442.0, 442.0, 443.0, 443.0, 442.0, 442.0, 442.0, 442.0, 443.0, 444.0, 444.0, 444.0, 444.0, 443.0, 444.0, 444.0, 444.0, 443.0, 444.0, 445.0, 445.0, 444.0, 443.0, 443.0, 442.0, 443.0, 442.0, 442.0, 443.0, 443.0, 443.0, 442.0, 442.0, 442.0, 441.0, 442.0, 442.0, 442.0, 442.0, 442.0, 442.0, 442.0, 442.0, 442.0, 442.0, 442.0, 442.0, 443.0, 444.0, 444.0, 444.0, 444.0, 443.0, 443.0, 444.0, 444.0, 445.0, 445.0, 444.0, 443.0, 444.0, 444.0, 444.0, 444.0, 445.0, 444.0, 444.0, 443.0, 441.0, 441.0, 441.0, 442.0, 442.0, 442.0, 442.0, 442.0, 442.0, 442.0, 442.0, 442.0, 442.0, 442.0, 442.0, 442.0, 442.0, 441.0, 441.0, 441.0, 442.0, 442.0, 442.0, 442.0, 443.0, 442.0, 442.0, 443.0, 443.0, 444.0, 445.0, 445.0, 444.0, 444.0, 444.0, 443.0, 444.0, 444.0, 444.0, 443.0, 441.0, 440.0, 441.0, 443.0, 445.0, 445.0, 444.0, 443.0, 443.0, 443.0, 442.0, 442.0, 441.0, 440.0, 440.0, 440.0, 440.0, 441.0, 441.0, 441.0, 441.0, 441.0, 441.0, 440.0, 440.0, 440.0, 440.0, 440.0, 440.0, 440.0, 441.0, 442.0, 442.0, 443.0, 443.0, 443.0, 443.0, 443.0, 442.0, 443.0, 443.0, 443.0, 443.0, 442.0, 442.0, 442.0, 441.0, 441.0, 441.0, 442.0, 442.0],
