{
  "AcquisitionMatrixPE": 104,
  "AcquisitionNumber": 1,
  "AcquisitionTime": "11:42:50.320000",
  "BandwidthPerPixelPhaseEncode": 43.054,
  "BaseResolution": 104,
  "CoilString": "C:E1_2",
  "ConversionSoftware": "dcm2niix",
  "ConversionSoftwareVersion": "v1.0.20191031",
  "DerivedVendorReportedEchoSpacing": 0.000669999,
  "DeviceSerialNumber": "18932",
  "DwellTime": 2.8e-06,
  "EchoTime": 0.02,
  "EffectiveEchoSpacing": 0.000223333,
  "FlipAngle": 30,
  "ImageComments": "Unaliased_MB2_PE2",
  "ImageOrientationPatientDICOM": [1, 0, 0, 0, 0.991216, -0.132256],
  "ImageType": [
    "ORIGINAL",
    "PRIMARY",
    "M",
    "MB",
    "ND",
    "MOSAIC"
],
  "ImagingFrequency": 297.229,
  "InPlanePhaseEncodingDirectionDICOM": "COL",
  "InstitutionAddress": "Richmond_Street_North_1151_London_409EF2_Ontario_CA_N6A_5B7",
  "InstitutionName": "Robarts_Reserch_Institute",
  "InstitutionalDepartmentName": "Department",
  "MRAcquisitionType": "2D",
  "MagneticFieldStrength": 6.98,
  "Manufacturer": "Siemens",
  "ManufacturersModelName": "Investigational_Device_7T",
  "Modality": "MR",
  "MultibandAccelerationFactor": 2,
  "ParallelReductionFactorInPlane": 3,
  "PartialFourier": 0.875,
  "PatientPosition": "HFS",
  "PercentPhaseFOV": 100,
  "PhaseEncodingDirection": "j-",
  "PhaseEncodingSteps": 91,
  "PhaseResolution": 1,
  "PixelBandwidth": 1717,
  "ProcedureStepDescription": "Diedrichsen_SeqRep4",
  "ProtocolName": "mbep2d_bold_mb2_p3_AP_2iso",
  "PulseSequenceDetails": "%CustomerSeq%_cmrr_mbep2d_bold",
  "ReceiveCoilName": "CFMM_8Tx32Rx",
  "ReconMatrixPE": 104,
  "RefLinesPE": 36,
  "RepetitionTime": 1,
  "ScanOptions": "PFP_FS",
  "ScanningSequence": "EP",
  "SequenceName": "epfid2d1_104",
  "SequenceVariant": "SK_SS",
  "SeriesDescription": "mbep2d_bold_mb2_p3_AP_2iso",
  "SeriesNumber": 26,
  "ShimSetting": [13, 2083, 18, 1313, 185, 69, 53, -49],
  "SliceThickness": 2,
  "SliceTiming": [0, 0.2275, 0.4575, 0.685, 0.9125, 0.1375, 0.365, 0.5925, 0.8225, 0.045, 0.275, 0.5025, 0.73, 0.9575, 0.1825, 0.41, 0.64, 0.8675, 0.0925, 0.32, 0.5475, 0.775, 0, 0.2275, 0.4575, 0.685, 0.9125, 0.1375, 0.365, 0.5925, 0.8225, 0.045, 0.275, 0.5025, 0.73, 0.9575, 0.1825, 0.41, 0.64, 0.8675, 0.0925, 0.32, 0.5475, 0.775],
  "SoftwareVersions": "syngo_MR_B17",
  "SpacingBetweenSlices": 2,
  "StationName": "MASTER",
  "TaskName": "dsp",
  "TotalReadoutTime": 0.0230033,
  "TxRefAmp": 120,
  "dcmmeta_affine": [
    [-2.0, 0.0, 0.0, 105.4527816772461],
    [0.0, 1.9824310541152954, -0.2645128071308136, -100.50387573242188],
    [0.0, 0.2645128071308136, 1.9824310541152954, -20.56864356994629],
    [0.0, 0.0, 0.0, 1.0]
],
  "dcmmeta_reorient_transform": [
    [0.0, -1.0, 0.0, 103.0],
    [1.0, 0.0, 0.0, 0.0],
    [0.0, 0.0, 1.0, 0.0],
    [0.0, 0.0, 0.0, 1.0]
],
  "dcmmeta_shape": [104, 104, 44, 330],
  "dcmmeta_slice_dim": 2,
  "dcmmeta_version": 0.6,
  "global": {
    "const": {
      "AcquisitionMatrix": [104, 0, 0, 104],
      "AngioFlag": "N",
      "BitsAllocated": 16,
      "BitsStored": 12,
      "Columns": 728,
      "EchoNumbers": 1,
      "EchoTime": 20.0,
      "EchoTrainLength": 1,
      "FlipAngle": 30.0,
      "HighBit": 11,
      "ImageOrientationPatient": [1.0, 0.0, 0.0, 0.0, 0.99121553937119, -0.132256396855],
      "ImagePositionPatient": [-729.45278453827, -722.20502355071, 89.20416522268],
      "ImageType": [
        "ORIGINAL",
        "PRIMARY",
        "M",
        "MB",
        "ND",
        "MOSAIC"
],
      "ImagedNucleus": "1H",
      "ImagingFrequency": 297.228805,
      "InPlanePhaseEncodingDirection": "COL",
      "MRAcquisitionType": "2D",
      "MagneticFieldStrength": 6.98,
      "Manufacturer": "SIEMENS",
      "ManufacturerModelName": "Investigational_Device_7T",
      "Modality": "MR",
      "NumberOfAverages": 1.0,
      "NumberOfPhaseEncodingSteps": 91,
      "PercentPhaseFieldOfView": 100.0,
      "PercentSampling": 100.0,
      "PerformedProcedureStepStartTime": "104742.937000",
      "PhotometricInterpretation": "MONOCHROME2",
      "PixelBandwidth": 1717.0,
      "PixelRepresentation": 0,
      "PixelSpacing": [2.0, 2.0],
      "ProtocolName": "mbep2d_bold_mb2_p3_AP 2iso",
      "RepetitionTime": 1000.0,
      "Rows": 728,
      "SAR": 0.0,
      "SamplesPerPixel": 1,
      "ScanOptions": [
        "PFP",
        "FS"
],
      "ScanningSequence": "EP",
      "SequenceName": "epfid2d1_104",
      "SequenceVariant": [
        "SK",
        "SS"
],
      "SeriesDescription": "mbep2d_bold_mb2_p3_AP 2iso",
      "SeriesNumber": 26,
      "SeriesTime": "114314.546000",
      "SliceLocation": -7.0956794600561,
      "SliceThickness": 2.0,
      "SmallestImagePixelValue": 0,
      "SoftwareVersions": "syngo MR B17",
      "SpacingBetweenSlices": 2.000000032963,
      "SpecificCharacterSet": "ISO_IR 100",
      "StudyID": "1",
      "StudyTime": "104742.875000",
      "TransmitCoilName": "CFMM_8Tx32Rx",
      "VariableFlipAngleFlag": "N",
      "WindowCenterWidthExplanation": "Algo1",
      "dBdt": 0.0},
    "slices": {}
  },
  "time": {
    "samples": {
      "AcquisitionNumber": [1, 2, 3, 4, 5, 6, 7, 8, 9, 10, 11, 12, 13, 14, 15, 16, 17, 18, 19, 20, 21, 22, 23, 24, 25, 26, 27, 28, 29, 30, 31, 32, 33, 34, 35, 36, 37, 38, 39, 40, 41, 42, 43, 44, 45, 46, 47, 48, 49, 50, 51, 52, 53, 54, 55, 56, 57, 58, 59, 60, 61, 62, 63, 64, 65, 66, 67, 68, 69, 70, 71, 72, 73, 74, 75, 76, 77, 78, 79, 80, 81, 82, 83, 84, 85, 86, 87, 88, 89, 90, 91, 92, 93, 94, 95, 96, 97, 98, 99, 100, 101, 102, 103, 104, 105, 106, 107, 108, 109, 110, 111, 112, 113, 114, 115, 116, 117, 118, 119, 120, 121, 122, 123, 124, 125, 126, 127, 128, 129, 130, 131, 132, 133, 134, 135, 136, 137, 138, 139, 140, 141, 142, 143, 144, 145, 146, 147, 148, 149, 150, 151, 152, 153, 154, 155, 156, 157, 158, 159, 160, 161, 162, 163, 164, 165, 166, 167, 168, 169, 170, 171, 172, 173, 174, 175, 176, 177, 178, 179, 180, 181, 182, 183, 184, 185, 186, 187, 188, 189, 190, 191, 192, 193, 194, 195, 196, 197, 198, 199, 200, 201, 202, 203, 204, 205, 206, 207, 208, 209, 210, 211, 212, 213, 214, 215, 216, 217, 218, 219, 220, 221, 222, 223, 224, 225, 226, 227, 228, 229, 230, 231, 232, 233, 234, 235, 236, 237, 238, 239, 240, 241, 242, 243, 244, 245, 246, 247, 248, 249, 250, 251, 252, 253, 254, 255, 256, 257, 258, 259, 260, 261, 262, 263, 264, 265, 266, 267, 268, 269, 270, 271, 272, 273, 274, 275, 276, 277, 278, 279, 280, 281, 282, 283, 284, 285, 286, 287, 288, 289, 290, 291, 292, 293, 294, 295, 296, 297, 298, 299, 300, 301, 302, 303, 304, 305, 306, 307, 308, 309, 310, 311, 312, 313, 314, 315, 316, 317, 318, 319, 320, 321, 322, 323, 324, 325, 326, 327, 328, 329, 330],
      "AcquisitionTime": ["114250.320000", "114251.325000", "114252.327500", "114253.332500", "114254.337500", "114255.340000", "114256.345000", "114257.347500", "114258.352500", "114259.357500", "114300.360000", "114301.365000", "114302.367500", "114303.372500", "114304.377500", "114305.380000", "114306.385000", "114307.387500", "114308.392500", "114309.397500", "114310.400000", "114311.405000", "114312.407500", "114313.412500", "114314.417500", "114315.420000", "114316.425000", "114317.430000", "114318.432500", "114319.437500", "114320.440000", "114321.445000", "114322.450000", "114323.452500", "114324.457500", "114325.460000", "114326.465000", "114327.470000", "114328.472500", "114329.477500", "114330.480000", "114331.485000", "114332.490000", "114333.492500", "114334.497500", "114335.500000", "114336.505000", "114337.510000", "114338.512500", "114339.517500", "114340.520000", "114341.525000", "114342.530000", "114343.532500", "114344.537500", "114345.540000", "114346.545000", "114347.550000", "114348.552500", "114349.557500", "114350.562500", "114351.565000", "114352.570000", "114353.572500", "114354.577500", "114355.582500", "114356.585000", "114357.590000", "114358.592500", "114359.597500", "114400.602500", "114401.605000", "114402.610000", "114403.612500", "114404.617500", "114405.622500", "114406.625000", "114407.630000", "114408.632500", "114409.637500", "114410.642500", "114411.645000", "114412.650000", "114413.652500", "114414.657500", "114415.662500", "114416.665000", "114417.670000", "114418.672500", "114419.677500", "114420.682500", "114421.685000", "114422.690000", "114423.695000", "114424.697500", "114425.702500", "114426.705000", "114427.710000", "114428.715000", "114429.717500", "114430.722500", "114431.725000", "114432.730000", "114433.735000", "114434.737500", "114435.742500", "114436.745000", "114437.750000", "114438.755000", "114439.757500", "114440.762500", "114441.765000", "114442.770000", "114443.775000", "114444.777500", "114445.782500", "114446.785000", "114447.790000", "114448.795000", "114449.797500", "114450.802500", "114451.807500", "114452.810000", "114453.815000", "114454.817500", "114455.822500", "114456.827500", "114457.830000", "114458.835000", "114459.837500", "114500.842500", "114501.847500", "114502.850000", "114503.855000", "114504.857500", "114505.862500", "114506.867500", "114507.870000", "114508.875000", "114509.877500", "114510.882500", "114511.887500", "114512.890000", "114513.895000", "114514.897500", "114515.902500", "114516.907500", "114517.910000", "114518.915000", "114519.917500", "114520.922500", "114521.927500", "114522.930000", "114523.935000", "114524.940000", "114525.942500", "114526.947500", "114527.950000", "114528.955000", "114529.960000", "114530.962500", "114531.967500", "114532.970000", "114533.975000", "114534.980000", "114535.982500", "114536.987500", "114537.990000", "114538.995000", "114540.000000", "114541.002500", "114542.007500", "114543.010000", "114544.015000", "114545.020000", "114546.022500", "114547.027500", "114548.030000", "114549.035000", "114550.040000", "114551.042500", "114552.047500", "114553.050000", "114554.055000", "114555.060000", "114556.062500", "114557.067500", "114558.072500", "114559.075000", "114600.080000", "114601.082500", "114602.087500", "114603.092500", "114604.095000", "114605.100000", "114606.102500", "114607.107500", "114608.112500", "114609.115000", "114610.120000", "114611.122500", "114612.127500", "114613.132500", "114614.135000", "114615.140000", "114616.142500", "114617.147500", "114618.152500", "114619.155000", "114620.160000", "114621.162500", "114622.167500", "114623.172500", "114624.175000", "114625.180000", "114626.185000", "114627.187500", "114628.192500", "114629.195000", "114630.200000", "114631.205000", "114632.207500", "114633.212500", "114634.215000", "114635.220000", "114636.225000", "114637.227500", "114638.232500", "114639.235000", "114640.240000", "114641.245000", "114642.247500", "114643.252500", "114644.255000", "114645.260000", "114646.265000", "114647.267500", "114648.272500", "114649.275000", "114650.280000", "114651.285000", "114652.287500", "114653.292500", "114654.295000", "114655.300000", "114656.305000", "114657.307500", "114658.312500", "114659.317500", "114700.320000", "114701.325000", "114702.327500", "114703.332500", "114704.337500", "114705.340000", "114706.345000", "114707.347500", "114708.352500", "114709.357500", "114710.360000", "114711.365000", "114712.367500", "114713.372500", "114714.377500", "114715.380000", "114716.385000", "114717.387500", "114718.392500", "114719.397500", "114720.400000", "114721.405000", "114722.407500", "114723.412500", "114724.417500", "114725.420000", "114726.425000", "114727.430000", "114728.432500", "114729.437500", "114730.440000", "114731.445000", "114732.450000", "114733.452500", "114734.457500", "114735.460000", "114736.465000", "114737.470000", "114738.472500", "114739.477500", "114740.480000", "114741.485000", "114742.490000", "114743.492500", "114744.497500", "114745.500000", "114746.505000", "114747.510000", "114748.512500", "114749.517500", "114750.520000", "114751.525000", "114752.530000", "114753.532500", "114754.537500", "114755.540000", "114756.545000", "114757.550000", "114758.552500", "114759.557500", "114800.562500", "114801.565000", "114802.570000", "114803.572500", "114804.577500", "114805.582500", "114806.585000", "114807.590000", "114808.592500", "114809.597500", "114810.602500", "114811.605000", "114812.610000", "114813.612500", "114814.617500", "114815.622500", "114816.625000", "114817.630000", "114818.632500", "114819.637500", "114820.642500"],
      "ContentTime": ["114314.546000", "114314.546000", "114314.546000", "114314.546000", "114314.562000", "114314.562000", "114314.562000", "114314.562000", "114314.562000", "114314.562000", "114314.562000", "114314.562000", "114314.578000", "114314.578000", "114314.578000", "114314.578000", "114314.578000", "114314.578000", "114314.578000", "114314.593000", "114314.593000", "114314.593000", "114314.593000", "114334.500000", "114334.500000", "114334.500000", "114334.500000", "114334.515000", "114334.515000", "114334.515000", "114334.515000", "114334.515000", "114334.515000", "114334.531000", "114334.531000", "114334.531000", "114334.531000", "114334.531000", "114334.531000", "114334.531000", "114334.546000", "114334.546000", "114334.546000", "114354.500000", "114354.500000", "114354.500000", "114354.500000", "114354.515000", "114354.515000", "114354.515000", "114354.515000", "114354.515000", "114354.515000", "114354.531000", "114354.531000", "114354.531000", "114354.531000", "114354.531000", "114354.531000", "114354.531000", "114354.546000", "114354.546000", "114354.546000", "114414.500000", "114414.500000", "114414.500000", "114414.515000", "114414.515000", "114414.515000", "114414.515000", "114414.515000", "114414.515000", "114414.515000", "114414.531000", "114414.531000", "114414.531000", "114414.531000", "114414.531000", "114414.531000", "114414.531000", "114414.531000", "114414.546000", "114414.546000", "114434.500000", "114434.500000", "114434.500000", "114434.500000", "114434.515000", "114434.515000", "114434.515000", "114434.515000", "114434.515000", "114434.515000", "114434.515000", "114434.515000", "114434.531000", "114434.531000", "114434.531000", "114434.531000", "114434.531000", "114434.546000", "114434.546000", "114434.546000", "114454.500000", "114454.500000", "114454.500000", "114454.500000", "114454.515000", "114454.515000", "114454.515000", "114454.515000", "114454.515000", "114454.515000", "114454.515000", "114454.531000", "114454.531000", "114454.531000", "114454.531000", "114454.531000", "114454.531000", "114454.546000", "114454.546000", "114454.546000", "114514.500000", "114514.500000", "114514.500000", "114514.500000", "114514.515000", "114514.515000", "114514.515000", "114514.515000", "114514.515000", "114514.515000", "114514.515000", "114514.531000", "114514.531000", "114514.531000", "114514.531000", "114514.531000", "114514.546000", "114514.546000", "114514.546000", "114514.546000", "114534.500000", "114534.500000", "114534.500000", "114534.500000", "114534.515000", "114534.515000", "114534.515000", "114534.515000", "114534.515000", "114534.515000", "114534.531000", "114534.531000", "114534.531000", "114534.531000", "114534.531000", "114534.531000", "114534.531000", "114534.546000", "114534.546000", "114534.546000", "114554.500000", "114554.500000", "114554.500000", "114554.500000", "114554.515000", "114554.515000", "114554.515000", "114554.515000", "114554.515000", "114554.531000", "114554.531000", "114554.531000", "114554.531000", "114554.531000", "114554.531000", "114554.546000", "114554.546000", "114554.546000", "114554.546000", "114554.546000", "114614.500000", "114614.500000", "114614.500000", "114614.500000", "114614.515000", "114614.515000", "114614.515000", "114614.515000", "114614.515000", "114614.515000", "114614.515000", "114614.515000", "114614.531000", "114614.531000", "114614.531000", "114614.531000", "114614.531000", "114614.531000", "114614.531000", "114614.546000", "114634.500000", "114634.515000", "114634.515000", "114634.515000", "114634.515000", "114634.515000", "114634.531000", "114634.531000", "114634.531000", "114634.531000", "114634.531000", "114634.531000", "114634.531000", "114634.531000", "114634.546000", "114634.546000", "114634.546000", "114634.546000", "114634.546000", "114634.546000", "114654.500000", "114654.500000", "114654.500000", "114654.500000", "114654.515000", "114654.515000", "114654.515000", "114654.515000", "114654.515000", "114654.515000", "114654.515000", "114654.515000", "114654.531000", "114654.531000", "114654.531000", "114654.531000", "114654.531000", "114654.531000", "114654.531000", "114654.546000", "114714.500000", "114714.500000", "114714.500000", "114714.500000", "114714.515000", "114714.515000", "114714.515000", "114714.515000", "114714.515000", "114714.515000", "114714.515000", "114714.515000", "114714.531000", "114714.531000", "114714.531000", "114714.531000", "114714.531000", "114714.531000", "114714.531000", "114714.546000", "114734.500000", "114734.500000", "114734.500000", "114734.500000", "114734.515000", "114734.515000", "114734.515000", "114734.515000", "114734.515000", "114734.515000", "114734.515000", "114734.531000", "114734.531000", "114734.531000", "114734.531000", "114734.531000", "114734.531000", "114734.531000", "114734.546000", "114734.546000", "114754.500000", "114754.500000", "114754.500000", "114754.500000", "114754.515000", "114754.515000", "114754.515000", "114754.515000", "114754.515000", "114754.515000", "114754.515000", "114754.515000", "114754.531000", "114754.531000", "114754.531000", "114754.531000", "114754.531000", "114754.531000", "114754.531000", "114754.546000", "114814.500000", "114814.500000", "114814.500000", "114814.500000", "114814.515000", "114814.515000", "114814.515000", "114814.515000", "114814.515000", "114814.531000", "114814.531000", "114814.531000", "114814.531000", "114814.531000", "114814.531000", "114814.531000", "114814.531000", "114814.546000", "114814.546000", "114814.546000", "114826.390000", "114826.390000", "114826.390000", "114826.406000", "114826.406000", "114826.406000", "114826.406000"],
      "InstanceCreationTime": ["114314.546000", "114314.546000", "114314.546000", "114314.546000", "114314.562000", "114314.562000", "114314.562000", "114314.562000", "114314.562000", "114314.562000", "114314.562000", "114314.562000", "114314.578000", "114314.578000", "114314.578000", "114314.578000", "114314.578000", "114314.578000", "114314.578000", "114314.593000", "114314.593000", "114314.593000", "114314.593000", "114334.500000", "114334.500000", "114334.500000", "114334.500000", "114334.515000", "114334.515000", "114334.515000", "114334.515000", "114334.515000", "114334.515000", "114334.531000", "114334.531000", "114334.531000", "114334.531000", "114334.531000", "114334.531000", "114334.531000", "114334.546000", "114334.546000", "114334.546000", "114354.500000", "114354.500000", "114354.500000", "114354.500000", "114354.515000", "114354.515000", "114354.515000", "114354.515000", "114354.515000", "114354.515000", "114354.531000", "114354.531000", "114354.531000", "114354.531000", "114354.531000", "114354.531000", "114354.531000", "114354.546000", "114354.546000", "114354.546000", "114414.500000", "114414.500000", "114414.500000", "114414.515000", "114414.515000", "114414.515000", "114414.515000", "114414.515000", "114414.515000", "114414.515000", "114414.531000", "114414.531000", "114414.531000", "114414.531000", "114414.531000", "114414.531000", "114414.531000", "114414.531000", "114414.546000", "114414.546000", "114434.500000", "114434.500000", "114434.500000", "114434.500000", "114434.515000", "114434.515000", "114434.515000", "114434.515000", "114434.515000", "114434.515000", "114434.515000", "114434.515000", "114434.531000", "114434.531000", "114434.531000", "114434.531000", "114434.531000", "114434.546000", "114434.546000", "114434.546000", "114454.500000", "114454.500000", "114454.500000", "114454.500000", "114454.515000", "114454.515000", "114454.515000", "114454.515000", "114454.515000", "114454.515000", "114454.515000", "114454.531000", "114454.531000", "114454.531000", "114454.531000", "114454.531000", "114454.531000", "114454.546000", "114454.546000", "114454.546000", "114514.500000", "114514.500000", "114514.500000", "114514.500000", "114514.515000", "114514.515000", "114514.515000", "114514.515000", "114514.515000", "114514.515000", "114514.515000", "114514.531000", "114514.531000", "114514.531000", "114514.531000", "114514.531000", "114514.546000", "114514.546000", "114514.546000", "114514.546000", "114534.500000", "114534.500000", "114534.500000", "114534.500000", "114534.515000", "114534.515000", "114534.515000", "114534.515000", "114534.515000", "114534.515000", "114534.531000", "114534.531000", "114534.531000", "114534.531000", "114534.531000", "114534.531000", "114534.531000", "114534.546000", "114534.546000", "114534.546000", "114554.500000", "114554.500000", "114554.500000", "114554.500000", "114554.515000", "114554.515000", "114554.515000", "114554.515000", "114554.515000", "114554.531000", "114554.531000", "114554.531000", "114554.531000", "114554.531000", "114554.531000", "114554.546000", "114554.546000", "114554.546000", "114554.546000", "114554.546000", "114614.500000", "114614.500000", "114614.500000", "114614.500000", "114614.515000", "114614.515000", "114614.515000", "114614.515000", "114614.515000", "114614.515000", "114614.515000", "114614.515000", "114614.531000", "114614.531000", "114614.531000", "114614.531000", "114614.531000", "114614.531000", "114614.531000", "114614.546000", "114634.500000", "114634.515000", "114634.515000", "114634.515000", "114634.515000", "114634.515000", "114634.531000", "114634.531000", "114634.531000", "114634.531000", "114634.531000", "114634.531000", "114634.531000", "114634.531000", "114634.546000", "114634.546000", "114634.546000", "114634.546000", "114634.546000", "114634.546000", "114654.500000", "114654.500000", "114654.500000", "114654.500000", "114654.515000", "114654.515000", "114654.515000", "114654.515000", "114654.515000", "114654.515000", "114654.515000", "114654.515000", "114654.531000", "114654.531000", "114654.531000", "114654.531000", "114654.531000", "114654.531000", "114654.531000", "114654.546000", "114714.500000", "114714.500000", "114714.500000", "114714.500000", "114714.515000", "114714.515000", "114714.515000", "114714.515000", "114714.515000", "114714.515000", "114714.515000", "114714.515000", "114714.531000", "114714.531000", "114714.531000", "114714.531000", "114714.531000", "114714.531000", "114714.531000", "114714.546000", "114734.500000", "114734.500000", "114734.500000", "114734.500000", "114734.515000", "114734.515000", "114734.515000", "114734.515000", "114734.515000", "114734.515000", "114734.515000", "114734.531000", "114734.531000", "114734.531000", "114734.531000", "114734.531000", "114734.531000", "114734.531000", "114734.546000", "114734.546000", "114754.500000", "114754.500000", "114754.500000", "114754.500000", "114754.515000", "114754.515000", "114754.515000", "114754.515000", "114754.515000", "114754.515000", "114754.515000", "114754.515000", "114754.531000", "114754.531000", "114754.531000", "114754.531000", "114754.531000", "114754.531000", "114754.531000", "114754.546000", "114814.500000", "114814.500000", "114814.500000", "114814.500000", "114814.515000", "114814.515000", "114814.515000", "114814.515000", "114814.515000", "114814.531000", "114814.531000", "114814.531000", "114814.531000", "114814.531000", "114814.531000", "114814.531000", "114814.531000", "114814.546000", "114814.546000", "114814.546000", "114826.390000", "114826.390000", "114826.390000", "114826.406000", "114826.406000", "114826.406000", "114826.406000"],
      "InstanceNumber": [1, 2, 3, 4, 5, 6, 7, 8, 9, 10, 11, 12, 13, 14, 15, 16, 17, 18, 19, 20, 21, 22, 23, 24, 25, 26, 27, 28, 29, 30, 31, 32, 33, 34, 35, 36, 37, 38, 39, 40, 41, 42, 43, 44, 45, 46, 47, 48, 49, 50, 51, 52, 53, 54, 55, 56, 57, 58, 59, 60, 61, 62, 63, 64, 65, 66, 67, 68, 69, 70, 71, 72, 73, 74, 75, 76, 77, 78, 79, 80, 81, 82, 83, 84, 85, 86, 87, 88, 89, 90, 91, 92, 93, 94, 95, 96, 97, 98, 99, 100, 101, 102, 103, 104, 105, 106, 107, 108, 109, 110, 111, 112, 113, 114, 115, 116, 117, 118, 119, 120, 121, 122, 123, 124, 125, 126, 127, 128, 129, 130, 131, 132, 133, 134, 135, 136, 137, 138, 139, 140, 141, 142, 143, 144, 145, 146, 147, 148, 149, 150, 151, 152, 153, 154, 155, 156, 157, 158, 159, 160, 161, 162, 163, 164, 165, 166, 167, 168, 169, 170, 171, 172, 173, 174, 175, 176, 177, 178, 179, 180, 181, 182, 183, 184, 185, 186, 187, 188, 189, 190, 191, 192, 193, 194, 195, 196, 197, 198, 199, 200, 201, 202, 203, 204, 205, 206, 207, 208, 209, 210, 211, 212, 213, 214, 215, 216, 217, 218, 219, 220, 221, 222, 223, 224, 225, 226, 227, 228, 229, 230, 231, 232, 233, 234, 235, 236, 237, 238, 239, 240, 241, 242, 243, 244, 245, 246, 247, 248, 249, 250, 251, 252, 253, 254, 255, 256, 257, 258, 259, 260, 261, 262, 263, 264, 265, 266, 267, 268, 269, 270, 271, 272, 273, 274, 275, 276, 277, 278, 279, 280, 281, 282, 283, 284, 285, 286, 287, 288, 289, 290, 291, 292, 293, 294, 295, 296, 297, 298, 299, 300, 301, 302, 303, 304, 305, 306, 307, 308, 309, 310, 311, 312, 313, 314, 315, 316, 317, 318, 319, 320, 321, 322, 323, 324, 325, 326, 327, 328, 329, 330],
      "LargestImagePixelValue": [2105, 2091, 2112, 2095, 2060, 2060, 2072, 2036, 2038, 2037, 2050, 2074, 2051, 2036, 2035, 2056, 2054, 2022, 2071, 2090, 2041, 2094, 2092, 2099, 2087, 2110, 2090, 2079, 2106, 2100, 2081, 2119, 2122, 2106, 2158, 2152, 2116, 2133, 2121, 2094, 2118, 2118, 2144, 2145, 2173, 2148, 2141, 2135, 2143, 2154, 2131, 2152, 2162, 2140, 2155, 2140, 2173, 2171, 2173, 2168, 2162, 2159, 2191, 2168, 2171, 2196, 2178, 2211, 2189, 2187, 2187, 2159, 2169, 2179, 2157, 2168, 2157, 2172, 2180, 2196, 2171, 2182, 2158, 2168, 2173, 2182, 2175, 2193, 2195, 2180, 2187, 2181, 2196, 2190, 2194, 2209, 2221, 2216, 2212, 2207, 2201, 2204, 2196, 2229, 2197, 2203, 2204, 2202, 2219, 2204, 2199, 2210, 2198, 2206, 2194, 2196, 2195, 2224, 2198, 2200, 2196, 2191, 2198, 2217, 2180, 2195, 2184, 2192, 2183, 2200, 2189, 2191, 2194, 2190, 2211, 2178, 2174, 2199, 2188, 2201, 2168, 2192, 2178, 2186, 2168, 2204, 2160, 2191, 2221, 2185, 2184, 2167, 2191, 2186, 2198, 2200, 2183, 2227, 2187, 2201, 2198, 2197, 2186, 2200, 2202, 2192, 2184, 2177, 2206, 2207, 2188, 2204, 2198, 2213, 2217, 2185, 2166, 2187, 2209, 2208, 2226, 2170, 2220, 2203, 2204, 2203, 2222, 2221, 2204, 2229, 2220, 2187, 2213, 2254, 2231, 2240, 2224, 2202, 2213, 2259, 2224, 2231, 2239, 2248, 2220, 2220, 2206, 2224, 2230, 2225, 2229, 2226, 2201, 2254, 2240, 2227, 2234, 2239, 2245, 2229, 2246, 2239, 2234, 2227, 2226, 2229, 2242, 2224, 2231, 2242, 2243, 2224, 2239, 2211, 2207, 2236, 2219, 2217, 2209, 2231, 2219, 2241, 2240, 2221, 2234, 2236, 2256, 2222, 2222, 2215, 2234, 2237, 2235, 2224, 2216, 2226, 2238, 2218, 2217, 2209, 2213, 2202, 2235, 2224, 2227, 2207, 2229, 2225, 2229, 2253, 2217, 2230, 2207, 2216, 2235, 2232, 2218, 2230, 2243, 2242, 2251, 2227, 2231, 2230, 2230, 2242, 2258, 2231, 2261, 2220, 2217, 2215, 2243, 2244, 2234, 2244, 2234, 2246, 2262, 2254, 2239, 2218, 2219, 2244, 2248, 2232, 2226, 2220, 2246, 2239, 2239, 2237, 2230, 2245, 2234, 2227, 2242, 2229, 2239, 2243, 2229, 2196, 2213, 2247, 2235, 2224, 2239, 2236, 2246, 2222],
      "WindowCenter": [439.0, 438.0, 438.0, 437.0, 437.0, 437.0, 437.0, 435.0, 435.0, 436.0, 436.0, 436.0, 436.0, 439.0, 441.0, 442.0, 441.0, 440.0, 440.0, 441.0, 440.0, 440.0, 440.0, 439.0, 439.0, 439.0, 438.0, 437.0, 437.0, 438.0, 438.0, 438.0, 439.0, 439.0, 439.0, 439.0, 438.0, 437.0, 438.0, 438.0, 439.0, 440.0, 440.0, 440.0, 440.0, 439.0, 439.0, 439.0, 439.0, 440.0, 440.0, 440.0, 439.0, 439.0, 439.0, 439.0, 439.0, 440.0, 439.0, 439.0, 438.0, 439.0, 440.0, 440.0, 441.0, 443.0, 442.0, 442.0, 440.0, 439.0, 439.0, 439.0, 439.0, 439.0, 439.0, 440.0, 440.0, 440.0, 439.0, 439.0, 439.0, 438.0, 438.0, 438.0, 439.0, 439.0, 439.0, 440.0, 441.0, 441.0, 440.0, 439.0, 440.0, 441.0, 441.0, 441.0, 441.0, 441.0, 440.0, 440.0, 440.0, 441.0, 441.0, 441.0, 442.0, 441.0, 441.0, 441.0, 441.0, 441.0, 441.0, 441.0, 442.0, 442.0, 441.0, 441.0, 441.0, 441.0, 440.0, 439.0, 439.0, 439.0, 439.0, 439.0, 438.0, 438.0, 438.0, 438.0, 437.0, 437.0, 438.0, 441.0, 443.0, 444.0, 442.0, 441.0, 440.0, 440.0, 440.0, 441.0, 442.0, 441.0, 440.0, 439.0, 439.0, 438.0, 437.0, 437.0, 437.0, 438.0, 437.0, 437.0, 437.0, 437.0, 438.0, 438.0, 439.0, 439.0, 439.0, 439.0, 439.0, 438.0, 439.0, 439.0, 439.0, 439.0, 439.0, 440.0, 441.0, 441.0, 442.0, 441.0, 442.0, 443.0, 443.0, 442.0, 441.0, 441.0, 441.0, 440.0, 440.0, 440.0, 440.0, 441.0, 440.0, 441.0, 441.0, 440.0, 439.0, 439.0, 439.0, 439.0, 440.0, 441.0, 441.0, 441.0, 441.0, 441.0, 441.0, 441.0, 441.0, 440.0, 440.0, 439.0, 439.0, 439.0, 438.0, 438.0, 438.0, 438.0, 439.0, 440.0, 440.0, 440.0, 439.0, 439.0, 439.0, 439.0, 439.0, 439.0, 439.0, 439.0, 440.0, 440.0, 440.0, 440.0, 441.0, 441.0, 441.0, 441.0, 440.0, 440.0, 440.0, 441.0, 441.0, 441.0, 441.0, 440.0, 440.0, 441.0, 441.0, 440.0, 439.0, 439.0, 439.0, 438.0, 438.0, 439.0, 439.0, 439.0, 440.0, 440.0, 440.0, 441.0, 440.0, 440.0, 441.0, 441.0, 441.0, 441.0, 442.0, 442.0, 443.0, 443.0, 442.0, 442.0, 441.0, 441.0, 440.0, 441.0, 440.0, 441.0, 441.0, 441.0, 441.0, 441.0, 441.0, 440.0, 440.0, 440.0, 441.0, 440.0, 440.0, 439.0, 439.0, 439.0, 440.0, 440.0, 440.0, 440.0, 441.0, 441.0, 440.0, 440.0, 439.0, 439.0, 439.0, 439.0, 440.0, 440.0, 440.0, 440.0, 439.0, 439.0, 439.0, 439.0, 439.0, 439.0, 440.0, 440.0, 440.0, 440.0, 440.0, 441.0, 441.0, 442.0, 442.0, 441.0, 441.0, 440.0, 440.0, 440.0, 441.0, 441.0, 441.0, 441.0, 441.0, 441.0, 441.0, 441.0],
