{
  "AcquisitionMatrixPE": 104,
  "AcquisitionNumber": 1,
  "AcquisitionTime": "11:13:25.820000",
  "BandwidthPerPixelPhaseEncode": 43.054,
  "BaseResolution": 104,
  "CoilString": "C:E1_2",
  "ConversionSoftware": "dcm2niix",
  "ConversionSoftwareVersion": "v1.0.20191031",
  "DerivedVendorReportedEchoSpacing": 0.000669999,
  "DeviceSerialNumber": "18932",
  "DwellTime": 2.8e-06,
  "EchoTime": 0.02,
  "EffectiveEchoSpacing": 0.000223333,
  "FlipAngle": 30,
  "ImageComments": "Unaliased_MB2_PE2",
  "ImageOrientationPatientDICOM": [1, 0, 0, 0, 0.991216, -0.132256],
  "ImageType": [
    "ORIGINAL",
    "PRIMARY",
    "M",
    "MB",
    "ND",
    "MOSAIC"
],
  "ImagingFrequency": 297.229,
  "InPlanePhaseEncodingDirectionDICOM": "COL",
  "InstitutionAddress": "Richmond_Street_North_1151_London_409EF2_Ontario_CA_N6A_5B7",
  "InstitutionName": "Robarts_Reserch_Institute",
  "InstitutionalDepartmentName": "Department",
  "MRAcquisitionType": "2D",
  "MagneticFieldStrength": 6.98,
  "Manufacturer": "Siemens",
  "ManufacturersModelName": "Investigational_Device_7T",
  "Modality": "MR",
  "MultibandAccelerationFactor": 2,
  "ParallelReductionFactorInPlane": 3,
  "PartialFourier": 0.875,
  "PatientPosition": "HFS",
  "PercentPhaseFOV": 100,
  "PhaseEncodingDirection": "j-",
  "PhaseEncodingSteps": 91,
  "PhaseResolution": 1,
  "PixelBandwidth": 1717,
  "ProcedureStepDescription": "Diedrichsen_SeqRep4",
  "ProtocolName": "mbep2d_bold_mb2_p3_AP_2iso",
  "PulseSequenceDetails": "%CustomerSeq%_cmrr_mbep2d_bold",
  "ReceiveCoilName": "CFMM_8Tx32Rx",
  "ReconMatrixPE": 104,
  "RefLinesPE": 36,
  "RepetitionTime": 1,
  "ScanOptions": "PFP_FS",
  "ScanningSequence": "EP",
  "SequenceName": "epfid2d1_104",
  "SequenceVariant": "SK_SS",
  "SeriesDescription": "mbep2d_bold_mb2_p3_AP_2iso",
  "SeriesNumber": 15,
  "ShimSetting": [13, 2083, 18, 1313, 185, 69, 53, -49],
  "SliceThickness": 2,
  "SliceTiming": [0, 0.2275, 0.4575, 0.685, 0.9125, 0.1375, 0.365, 0.5925, 0.8225, 0.045, 0.275, 0.5025, 0.73, 0.9575, 0.1825, 0.41, 0.64, 0.8675, 0.0925, 0.32, 0.5475, 0.775, 0, 0.2275, 0.4575, 0.685, 0.9125, 0.1375, 0.365, 0.5925, 0.8225, 0.045, 0.275, 0.5025, 0.73, 0.9575, 0.1825, 0.41, 0.64, 0.8675, 0.0925, 0.32, 0.5475, 0.775],
  "SoftwareVersions": "syngo_MR_B17",
  "SpacingBetweenSlices": 2,
  "StationName": "MASTER",
  "TaskName": "dsp",
  "TotalReadoutTime": 0.0230033,
  "TxRefAmp": 120,
  "dcmmeta_affine": [
    [-2.0, 0.0, 0.0, 105.4527816772461],
    [0.0, 1.9824310541152954, -0.2645128071308136, -100.50387573242188],
    [0.0, 0.2645128071308136, 1.9824310541152954, -20.56864356994629],
    [0.0, 0.0, 0.0, 1.0]
],
  "dcmmeta_reorient_transform": [
    [0.0, -1.0, 0.0, 103.0],
    [1.0, 0.0, 0.0, 0.0],
    [0.0, 0.0, 1.0, 0.0],
    [0.0, 0.0, 0.0, 1.0]
],
  "dcmmeta_shape": [104, 104, 44, 330],
  "dcmmeta_slice_dim": 2,
  "dcmmeta_version": 0.6,
  "global": {
    "const": {
      "AcquisitionMatrix": [104, 0, 0, 104],
      "AngioFlag": "N",
      "BitsAllocated": 16,
      "BitsStored": 12,
      "Columns": 728,
      "EchoNumbers": 1,
      "EchoTime": 20.0,
      "EchoTrainLength": 1,
      "FlipAngle": 30.0,
      "HighBit": 11,
      "ImageOrientationPatient": [1.0, 0.0, 0.0, 0.0, 0.99121553937119, -0.132256396855],
      "ImagePositionPatient": [-729.45278453827, -722.20502355071, 89.20416522268],
      "ImageType": [
        "ORIGINAL",
        "PRIMARY",
        "M",
        "MB",
        "ND",
        "MOSAIC"
],
      "ImagedNucleus": "1H",
      "ImagingFrequency": 297.228799,
      "InPlanePhaseEncodingDirection": "COL",
      "MRAcquisitionType": "2D",
      "MagneticFieldStrength": 6.98,
      "Manufacturer": "SIEMENS",
      "ManufacturerModelName": "Investigational_Device_7T",
      "Modality": "MR",
      "NumberOfAverages": 1.0,
      "NumberOfPhaseEncodingSteps": 91,
      "PercentPhaseFieldOfView": 100.0,
      "PercentSampling": 100.0,
      "PerformedProcedureStepStartTime": "104742.937000",
      "PhotometricInterpretation": "MONOCHROME2",
      "PixelBandwidth": 1717.0,
      "PixelRepresentation": 0,
      "PixelSpacing": [2.0, 2.0],
      "ProtocolName": "mbep2d_bold_mb2_p3_AP 2iso",
      "RepetitionTime": 1000.0,
      "Rows": 728,
      "SAR": 0.0,
      "SamplesPerPixel": 1,
      "ScanOptions": [
        "PFP",
        "FS"
],
      "ScanningSequence": "EP",
      "SequenceName": "epfid2d1_104",
      "SequenceVariant": [
        "SK",
        "SS"
],
      "SeriesDescription": "mbep2d_bold_mb2_p3_AP 2iso",
      "SeriesNumber": 15,
      "SeriesTime": "111403.937000",
      "SliceLocation": -7.0956794600561,
      "SliceThickness": 2.0,
      "SmallestImagePixelValue": 0,
      "SoftwareVersions": "syngo MR B17",
      "SpacingBetweenSlices": 2.000000032963,
      "SpecificCharacterSet": "ISO_IR 100",
      "StudyID": "1",
      "StudyTime": "104742.875000",
      "TransmitCoilName": "CFMM_8Tx32Rx",
      "VariableFlipAngleFlag": "N",
      "WindowCenterWidthExplanation": "Algo1",
      "dBdt": 0.0},
    "slices": {}
  },
  "time": {
    "samples": {
      "AcquisitionNumber": [1, 2, 3, 4, 5, 6, 7, 8, 9, 10, 11, 12, 13, 14, 15, 16, 17, 18, 19, 20, 21, 22, 23, 24, 25, 26, 27, 28, 29, 30, 31, 32, 33, 34, 35, 36, 37, 38, 39, 40, 41, 42, 43, 44, 45, 46, 47, 48, 49, 50, 51, 52, 53, 54, 55, 56, 57, 58, 59, 60, 61, 62, 63, 64, 65, 66, 67, 68, 69, 70, 71, 72, 73, 74, 75, 76, 77, 78, 79, 80, 81, 82, 83, 84, 85, 86, 87, 88, 89, 90, 91, 92, 93, 94, 95, 96, 97, 98, 99, 100, 101, 102, 103, 104, 105, 106, 107, 108, 109, 110, 111, 112, 113, 114, 115, 116, 117, 118, 119, 120, 121, 122, 123, 124, 125, 126, 127, 128, 129, 130, 131, 132, 133, 134, 135, 136, 137, 138, 139, 140, 141, 142, 143, 144, 145, 146, 147, 148, 149, 150, 151, 152, 153, 154, 155, 156, 157, 158, 159, 160, 161, 162, 163, 164, 165, 166, 167, 168, 169, 170, 171, 172, 173, 174, 175, 176, 177, 178, 179, 180, 181, 182, 183, 184, 185, 186, 187, 188, 189, 190, 191, 192, 193, 194, 195, 196, 197, 198, 199, 200, 201, 202, 203, 204, 205, 206, 207, 208, 209, 210, 211, 212, 213, 214, 215, 216, 217, 218, 219, 220, 221, 222, 223, 224, 225, 226, 227, 228, 229, 230, 231, 232, 233, 234, 235, 236, 237, 238, 239, 240, 241, 242, 243, 244, 245, 246, 247, 248, 249, 250, 251, 252, 253, 254, 255, 256, 257, 258, 259, 260, 261, 262, 263, 264, 265, 266, 267, 268, 269, 270, 271, 272, 273, 274, 275, 276, 277, 278, 279, 280, 281, 282, 283, 284, 285, 286, 287, 288, 289, 290, 291, 292, 293, 294, 295, 296, 297, 298, 299, 300, 301, 302, 303, 304, 305, 306, 307, 308, 309, 310, 311, 312, 313, 314, 315, 316, 317, 318, 319, 320, 321, 322, 323, 324, 325, 326, 327, 328, 329, 330],
      "AcquisitionTime": ["111325.820000", "111326.825000", "111327.827500", "111328.832500", "111329.837500", "111330.840000", "111331.845000", "111332.847500", "111333.852500", "111334.857500", "111335.860000", "111336.865000", "111337.867500", "111338.872500", "111339.877500", "111340.880000", "111341.885000", "111342.887500", "111343.892500", "111344.897500", "111345.900000", "111346.905000", "111347.910000", "111348.912500", "111349.917500", "111350.920000", "111351.925000", "111352.930000", "111353.932500", "111354.937500", "111355.940000", "111356.945000", "111357.950000", "111358.952500", "111359.957500", "111400.960000", "111401.965000", "111402.970000", "111403.972500", "111404.977500", "111405.980000", "111406.985000", "111407.990000", "111408.992500", "111409.997500", "111411.000000", "111412.005000", "111413.010000", "111414.012500", "111415.017500", "111416.020000", "111417.025000", "111418.030000", "111419.032500", "111420.037500", "111421.042500", "111422.045000", "111423.050000", "111424.052500", "111425.057500", "111426.062500", "111427.065000", "111428.070000", "111429.072500", "111430.077500", "111431.082500", "111432.085000", "111433.090000", "111434.092500", "111435.097500", "111436.102500", "111437.105000", "111438.110000", "111439.112500", "111440.117500", "111441.122500", "111442.125000", "111443.130000", "111444.132500", "111445.137500", "111446.142500", "111447.145000", "111448.150000", "111449.155000", "111450.157500", "111451.162500", "111452.165000", "111453.170000", "111454.175000", "111455.177500", "111456.182500", "111457.185000", "111458.190000", "111459.195000", "111500.197500", "111501.202500", "111502.205000", "111503.210000", "111504.215000", "111505.217500", "111506.222500", "111507.225000", "111508.230000", "111509.235000", "111510.237500", "111511.242500", "111512.245000", "111513.250000", "111514.255000", "111515.257500", "111516.262500", "111517.265000", "111518.270000", "111519.275000", "111520.277500", "111521.282500", "111522.287500", "111523.290000", "111524.295000", "111525.297500", "111526.302500", "111527.307500", "111528.310000", "111529.315000", "111530.317500", "111531.322500", "111532.327500", "111533.330000", "111534.335000", "111535.337500", "111536.342500", "111537.347500", "111538.350000", "111539.355000", "111540.357500", "111541.362500", "111542.367500", "111543.370000", "111544.375000", "111545.377500", "111546.382500", "111547.387500", "111548.390000", "111549.395000", "111550.397500", "111551.402500", "111552.407500", "111553.410000", "111554.415000", "111555.420000", "111556.422500", "111557.427500", "111558.430000", "111559.435000", "111600.440000", "111601.442500", "111602.447500", "111603.450000", "111604.455000", "111605.460000", "111606.462500", "111607.467500", "111608.470000", "111609.475000", "111610.480000", "111611.482500", "111612.487500", "111613.490000", "111614.495000", "111615.500000", "111616.502500", "111617.507500", "111618.510000", "111619.515000", "111620.520000", "111621.522500", "111622.527500", "111623.532500", "111624.535000", "111625.540000", "111626.542500", "111627.547500", "111628.552500", "111629.555000", "111630.560000", "111631.562500", "111632.567500", "111633.572500", "111634.575000", "111635.580000", "111636.582500", "111637.587500", "111638.592500", "111639.595000", "111640.600000", "111641.602500", "111642.607500", "111643.612500", "111644.615000", "111645.620000", "111646.622500", "111647.627500", "111648.632500", "111649.635000", "111650.640000", "111651.642500", "111652.647500", "111653.652500", "111654.655000", "111655.660000", "111656.665000", "111657.667500", "111658.672500", "111659.675000", "111700.680000", "111701.685000", "111702.687500", "111703.692500", "111704.695000", "111705.700000", "111706.705000", "111707.707500", "111708.712500", "111709.715000", "111710.720000", "111711.725000", "111712.727500", "111713.732500", "111714.735000", "111715.740000", "111716.745000", "111717.747500", "111718.752500", "111719.755000", "111720.760000", "111721.765000", "111722.767500", "111723.772500", "111724.775000", "111725.780000", "111726.785000", "111727.787500", "111728.792500", "111729.797500", "111730.800000", "111731.805000", "111732.807500", "111733.812500", "111734.817500", "111735.820000", "111736.825000", "111737.827500", "111738.832500", "111739.837500", "111740.840000", "111741.845000", "111742.847500", "111743.852500", "111744.857500", "111745.860000", "111746.865000", "111747.867500", "111748.872500", "111749.877500", "111750.880000", "111751.885000", "111752.887500", "111753.892500", "111754.897500", "111755.900000", "111756.905000", "111757.910000", "111758.912500", "111759.917500", "111800.920000", "111801.925000", "111802.930000", "111803.932500", "111804.937500", "111805.940000", "111806.945000", "111807.950000", "111808.952500", "111809.957500", "111810.960000", "111811.965000", "111812.970000", "111813.972500", "111814.977500", "111815.980000", "111816.985000", "111817.990000", "111818.992500", "111819.997500", "111821.000000", "111822.005000", "111823.010000", "111824.012500", "111825.017500", "111826.020000", "111827.025000", "111828.030000", "111829.032500", "111830.037500", "111831.042500", "111832.045000", "111833.050000", "111834.052500", "111835.057500", "111836.062500", "111837.065000", "111838.070000", "111839.072500", "111840.077500", "111841.082500", "111842.085000", "111843.090000", "111844.092500", "111845.097500", "111846.102500", "111847.105000", "111848.110000", "111849.112500", "111850.117500", "111851.122500", "111852.125000", "111853.130000", "111854.132500", "111855.137500", "111856.142500"],
      "ContentTime": ["111403.937000", "111403.937000", "111403.953000", "111403.953000", "111403.953000", "111403.953000", "111403.953000", "111403.953000", "111403.968000", "111403.968000", "111403.968000", "111403.968000", "111403.968000", "111403.984000", "111403.984000", "111403.984000", "111403.984000", "111403.984000", "111403.984000", "111403.984000", "111404.000000", "111404.000000", "111404.000000", "111404.000000", "111404.000000", "111404.000000", "111404.000000", "111404.000000", "111404.015000", "111404.015000", "111404.015000", "111404.015000", "111404.015000", "111404.015000", "111404.015000", "111404.031000", "111404.031000", "111423.906000", "111423.906000", "111423.906000", "111423.906000", "111423.921000", "111423.921000", "111423.921000", "111423.921000", "111423.921000", "111423.937000", "111423.937000", "111423.937000", "111423.937000", "111423.937000", "111423.937000", "111423.937000", "111423.953000", "111423.953000", "111423.953000", "111423.953000", "111443.906000", "111443.906000", "111443.906000", "111443.906000", "111443.921000", "111443.921000", "111443.921000", "111443.921000", "111443.921000", "111443.937000", "111443.937000", "111443.937000", "111443.937000", "111443.937000", "111443.953000", "111443.953000", "111443.953000", "111443.953000", "111443.953000", "111443.953000", "111503.906000", "111503.906000", "111503.906000", "111503.906000", "111503.921000", "111503.921000", "111503.921000", "111503.921000", "111503.921000", "111503.921000", "111503.921000", "111503.937000", "111503.937000", "111503.937000", "111503.937000", "111503.937000", "111503.937000", "111503.937000", "111503.937000", "111503.953000", "111523.906000", "111523.906000", "111523.906000", "111523.906000", "111523.921000", "111523.921000", "111523.921000", "111523.921000", "111523.937000", "111523.937000", "111523.937000", "111523.937000", "111523.937000", "111523.937000", "111523.937000", "111523.953000", "111523.953000", "111523.953000", "111523.953000", "111523.953000", "111543.906000", "111543.906000", "111543.906000", "111543.906000", "111543.921000", "111543.921000", "111543.921000", "111543.921000", "111543.921000", "111543.937000", "111543.937000", "111543.937000", "111543.937000", "111543.937000", "111543.937000", "111543.937000", "111543.937000", "111543.953000", "111543.953000", "111543.953000", "111603.906000", "111603.906000", "111603.906000", "111603.906000", "111603.921000", "111603.921000", "111603.921000", "111603.921000", "111603.921000", "111603.921000", "111603.921000", "111603.921000", "111603.937000", "111603.937000", "111603.937000", "111603.937000", "111603.937000", "111603.937000", "111603.937000", "111603.953000", "111623.906000", "111623.906000", "111623.906000", "111623.906000", "111623.921000", "111623.921000", "111623.921000", "111623.921000", "111623.921000", "111623.921000", "111623.937000", "111623.937000", "111623.937000", "111623.937000", "111623.937000", "111623.937000", "111623.937000", "111623.953000", "111623.953000", "111623.953000", "111643.906000", "111643.906000", "111643.906000", "111643.921000", "111643.921000", "111643.921000", "111643.921000", "111643.921000", "111643.921000", "111643.937000", "111643.937000", "111643.937000", "111643.937000", "111643.937000", "111643.937000", "111643.937000", "111643.953000", "111643.953000", "111643.953000", "111643.953000", "111703.906000", "111703.906000", "111703.906000", "111703.906000", "111703.921000", "111703.921000", "111703.921000", "111703.921000", "111703.921000", "111703.921000", "111703.937000", "111703.937000", "111703.937000", "111703.937000", "111703.937000", "111703.937000", "111703.953000", "111703.953000", "111703.953000", "111703.953000", "111723.906000", "111723.906000", "111723.906000", "111723.906000", "111723.921000", "111723.921000", "111723.921000", "111723.921000", "111723.921000", "111723.921000", "111723.921000", "111723.937000", "111723.937000", "111723.937000", "111723.937000", "111723.937000", "111723.937000", "111723.937000", "111723.937000", "111723.953000", "111743.906000", "111743.906000", "111743.906000", "111743.921000", "111743.921000", "111743.921000", "111743.921000", "111743.921000", "111743.921000", "111743.921000", "111743.921000", "111743.937000", "111743.937000", "111743.937000", "111743.937000", "111743.937000", "111743.937000", "111743.937000", "111743.953000", "111743.953000", "111803.906000", "111803.906000", "111803.906000", "111803.906000", "111803.921000", "111803.921000", "111803.921000", "111803.921000", "111803.921000", "111803.921000", "111803.921000", "111803.937000", "111803.937000", "111803.937000", "111803.937000", "111803.953000", "111803.953000", "111803.953000", "111803.953000", "111803.953000", "111823.906000", "111823.906000", "111823.906000", "111823.906000", "111823.921000", "111823.921000", "111823.921000", "111823.921000", "111823.937000", "111823.937000", "111823.937000", "111823.937000", "111823.937000", "111823.937000", "111823.937000", "111823.937000", "111823.953000", "111823.953000", "111823.953000", "111823.953000", "111843.906000", "111843.906000", "111843.906000", "111843.906000", "111843.921000", "111843.921000", "111843.921000", "111843.921000", "111843.921000", "111843.921000", "111843.921000", "111843.921000", "111843.937000", "111843.937000", "111843.937000", "111843.937000", "111843.937000", "111843.937000", "111843.937000", "111843.953000", "111901.140000", "111901.140000", "111901.140000", "111901.140000", "111901.140000", "111901.140000", "111901.140000", "111901.156000", "111901.156000", "111901.156000", "111901.156000", "111901.156000", "111901.156000"],
      "InstanceCreationTime": ["111403.937000", "111403.937000", "111403.953000", "111403.953000", "111403.953000", "111403.953000", "111403.953000", "111403.953000", "111403.968000", "111403.968000", "111403.968000", "111403.968000", "111403.968000", "111403.984000", "111403.984000", "111403.984000", "111403.984000", "111403.984000", "111403.984000", "111403.984000", "111404.000000", "111404.000000", "111404.000000", "111404.000000", "111404.000000", "111404.000000", "111404.000000", "111404.000000", "111404.015000", "111404.015000", "111404.015000", "111404.015000", "111404.015000", "111404.015000", "111404.015000", "111404.031000", "111404.031000", "111423.906000", "111423.906000", "111423.906000", "111423.906000", "111423.921000", "111423.921000", "111423.921000", "111423.921000", "111423.921000", "111423.937000", "111423.937000", "111423.937000", "111423.937000", "111423.937000", "111423.937000", "111423.937000", "111423.953000", "111423.953000", "111423.953000", "111423.953000", "111443.906000", "111443.906000", "111443.906000", "111443.906000", "111443.921000", "111443.921000", "111443.921000", "111443.921000", "111443.921000", "111443.937000", "111443.937000", "111443.937000", "111443.937000", "111443.937000", "111443.953000", "111443.953000", "111443.953000", "111443.953000", "111443.953000", "111443.953000", "111503.906000", "111503.906000", "111503.906000", "111503.906000", "111503.921000", "111503.921000", "111503.921000", "111503.921000", "111503.921000", "111503.921000", "111503.921000", "111503.937000", "111503.937000", "111503.937000", "111503.937000", "111503.937000", "111503.937000", "111503.937000", "111503.937000", "111503.953000", "111523.906000", "111523.906000", "111523.906000", "111523.906000", "111523.921000", "111523.921000", "111523.921000", "111523.921000", "111523.937000", "111523.937000", "111523.937000", "111523.937000", "111523.937000", "111523.937000", "111523.937000", "111523.953000", "111523.953000", "111523.953000", "111523.953000", "111523.953000", "111543.906000", "111543.906000", "111543.906000", "111543.906000", "111543.921000", "111543.921000", "111543.921000", "111543.921000", "111543.921000", "111543.937000", "111543.937000", "111543.937000", "111543.937000", "111543.937000", "111543.937000", "111543.937000", "111543.937000", "111543.953000", "111543.953000", "111543.953000", "111603.906000", "111603.906000", "111603.906000", "111603.906000", "111603.921000", "111603.921000", "111603.921000", "111603.921000", "111603.921000", "111603.921000", "111603.921000", "111603.921000", "111603.937000", "111603.937000", "111603.937000", "111603.937000", "111603.937000", "111603.937000", "111603.937000", "111603.953000", "111623.906000", "111623.906000", "111623.906000", "111623.906000", "111623.921000", "111623.921000", "111623.921000", "111623.921000", "111623.921000", "111623.921000", "111623.937000", "111623.937000", "111623.937000", "111623.937000", "111623.937000", "111623.937000", "111623.937000", "111623.953000", "111623.953000", "111623.953000", "111643.906000", "111643.906000", "111643.906000", "111643.921000", "111643.921000", "111643.921000", "111643.921000", "111643.921000", "111643.921000", "111643.937000", "111643.937000", "111643.937000", "111643.937000", "111643.937000", "111643.937000", "111643.937000", "111643.953000", "111643.953000", "111643.953000", "111643.953000", "111703.906000", "111703.906000", "111703.906000", "111703.906000", "111703.921000", "111703.921000", "111703.921000", "111703.921000", "111703.921000", "111703.921000", "111703.937000", "111703.937000", "111703.937000", "111703.937000", "111703.937000", "111703.937000", "111703.953000", "111703.953000", "111703.953000", "111703.953000", "111723.906000", "111723.906000", "111723.906000", "111723.906000", "111723.921000", "111723.921000", "111723.921000", "111723.921000", "111723.921000", "111723.921000", "111723.921000", "111723.937000", "111723.937000", "111723.937000", "111723.937000", "111723.937000", "111723.937000", "111723.937000", "111723.937000", "111723.953000", "111743.906000", "111743.906000", "111743.906000", "111743.921000", "111743.921000", "111743.921000", "111743.921000", "111743.921000", "111743.921000", "111743.921000", "111743.921000", "111743.937000", "111743.937000", "111743.937000", "111743.937000", "111743.937000", "111743.937000", "111743.937000", "111743.953000", "111743.953000", "111803.906000", "111803.906000", "111803.906000", "111803.906000", "111803.921000", "111803.921000", "111803.921000", "111803.921000", "111803.921000", "111803.921000", "111803.921000", "111803.937000", "111803.937000", "111803.937000", "111803.937000", "111803.953000", "111803.953000", "111803.953000", "111803.953000", "111803.953000", "111823.906000", "111823.906000", "111823.906000", "111823.906000", "111823.921000", "111823.921000", "111823.921000", "111823.921000", "111823.937000", "111823.937000", "111823.937000", "111823.937000", "111823.937000", "111823.937000", "111823.937000", "111823.937000", "111823.953000", "111823.953000", "111823.953000", "111823.953000", "111843.906000", "111843.906000", "111843.906000", "111843.906000", "111843.921000", "111843.921000", "111843.921000", "111843.921000", "111843.921000", "111843.921000", "111843.921000", "111843.921000", "111843.937000", "111843.937000", "111843.937000", "111843.937000", "111843.937000", "111843.937000", "111843.937000", "111843.953000", "111901.140000", "111901.140000", "111901.140000", "111901.140000", "111901.140000", "111901.140000", "111901.140000", "111901.156000", "111901.156000", "111901.156000", "111901.156000", "111901.156000", "111901.156000"],
      "InstanceNumber": [1, 2, 3, 4, 5, 6, 7, 8, 9, 10, 11, 12, 13, 14, 15, 16, 17, 18, 19, 20, 21, 22, 23, 24, 25, 26, 27, 28, 29, 30, 31, 32, 33, 34, 35, 36, 37, 38, 39, 40, 41, 42, 43, 44, 45, 46, 47, 48, 49, 50, 51, 52, 53, 54, 55, 56, 57, 58, 59, 60, 61, 62, 63, 64, 65, 66, 67, 68, 69, 70, 71, 72, 73, 74, 75, 76, 77, 78, 79, 80, 81, 82, 83, 84, 85, 86, 87, 88, 89, 90, 91, 92, 93, 94, 95, 96, 97, 98, 99, 100, 101, 102, 103, 104, 105, 106, 107, 108, 109, 110, 111, 112, 113, 114, 115, 116, 117, 118, 119, 120, 121, 122, 123, 124, 125, 126, 127, 128, 129, 130, 131, 132, 133, 134, 135, 136, 137, 138, 139, 140, 141, 142, 143, 144, 145, 146, 147, 148, 149, 150, 151, 152, 153, 154, 155, 156, 157, 158, 159, 160, 161, 162, 163, 164, 165, 166, 167, 168, 169, 170, 171, 172, 173, 174, 175, 176, 177, 178, 179, 180, 181, 182, 183, 184, 185, 186, 187, 188, 189, 190, 191, 192, 193, 194, 195, 196, 197, 198, 199, 200, 201, 202, 203, 204, 205, 206, 207, 208, 209, 210, 211, 212, 213, 214, 215, 216, 217, 218, 219, 220, 221, 222, 223, 224, 225, 226, 227, 228, 229, 230, 231, 232, 233, 234, 235, 236, 237, 238, 239, 240, 241, 242, 243, 244, 245, 246, 247, 248, 249, 250, 251, 252, 253, 254, 255, 256, 257, 258, 259, 260, 261, 262, 263, 264, 265, 266, 267, 268, 269, 270, 271, 272, 273, 274, 275, 276, 277, 278, 279, 280, 281, 282, 283, 284, 285, 286, 287, 288, 289, 290, 291, 292, 293, 294, 295, 296, 297, 298, 299, 300, 301, 302, 303, 304, 305, 306, 307, 308, 309, 310, 311, 312, 313, 314, 315, 316, 317, 318, 319, 320, 321, 322, 323, 324, 325, 326, 327, 328, 329, 330],
      "LargestImagePixelValue": [2194, 2182, 2162, 2179, 2166, 2170, 2189, 2140, 2155, 2150, 2166, 2149, 2152, 2149, 2152, 2154, 2165, 2123, 2140, 2145, 2164, 2147, 2143, 2186, 2164, 2176, 2161, 2147, 2158, 2169, 2143, 2156, 2174, 2154, 2157, 2163, 2165, 2114, 2151, 2145, 2151, 2141, 2154, 2136, 2153, 2151, 2157, 2165, 2161, 2139, 2156, 2167, 2144, 2172, 2190, 2190, 2131, 2136, 2176, 2166, 2178, 2167, 2114, 2121, 2167, 2151, 2159, 2151, 2160, 2138, 2131, 2160, 2143, 2132, 2150, 2115, 2130, 2111, 2147, 2174, 2149, 2123, 2129, 2149, 2174, 2149, 2150, 2141, 2095, 2147, 2122, 2133, 2123, 2127, 2111, 2114, 2105, 2093, 2129, 2122, 2128, 2112, 2129, 2144, 2077, 2118, 2118, 2081, 2148, 2129, 2125, 2083, 2088, 2079, 2124, 2143, 2102, 2097, 2110, 2125, 2105, 2111, 2081, 2098, 2119, 2102, 2090, 2080, 2084, 2119, 2070, 2094, 2102, 2084, 2121, 2103, 2081, 2071, 2095, 2103, 2108, 2081, 2075, 2092, 2099, 2091, 2071, 2101, 2101, 2112, 2130, 2109, 2087, 2116, 2113, 2098, 2073, 2074, 2117, 2114, 2106, 2109, 2106, 2092, 2111, 2063, 2073, 2089, 2117, 2112, 2099, 2121, 2092, 2096, 2057, 2090, 2054, 2098, 2115, 2086, 2111, 2095, 2061, 2088, 2088, 2080, 2080, 2106, 2121, 2087, 2098, 2152, 2105, 2077, 2115, 2125, 2079, 2086, 2120, 2081, 2082, 2089, 2120, 2066, 2092, 2107, 2111, 2084, 2100, 2124, 2090, 2086, 2090, 2127, 2132, 2117, 2082, 2104, 2103, 2120, 2096, 2100, 2096, 2111, 2104, 2101, 2125, 2128, 2091, 2115, 2166, 2125, 2102, 2148, 2164, 2098, 2129, 2138, 2145, 2141, 2173, 2144, 2172, 2152, 2170, 2165, 2157, 2152, 2193, 2150, 2174, 2172, 2198, 2146, 2184, 2186, 2187, 2194, 2176, 2190, 2213, 2218, 2181, 2196, 2207, 2204, 2247, 2189, 2210, 2245, 2204, 2219, 2238, 2220, 2219, 2257, 2222, 2229, 2243, 2244, 2217, 2241, 2249, 2263, 2226, 2268, 2274, 2237, 2261, 2274, 2282, 2247, 2246, 2244, 2235, 2248, 2267, 2277, 2238, 2248, 2255, 2258, 2274, 2225, 2247, 2270, 2249, 2228, 2225, 2272, 2230, 2239, 2260, 2213, 2233, 2273, 2256, 2232, 2262, 2226, 2222, 2258, 2256, 2219, 2226, 2258, 2246, 2244, 2259, 2280],
      "WindowCenter": [441.0, 440.0, 440.0, 441.0, 441.0, 441.0, 441.0, 442.0, 442.0, 442.0, 442.0, 442.0, 442.0, 443.0, 443.0, 443.0, 442.0, 442.0, 441.0, 442.0, 443.0, 442.0, 442.0, 443.0, 443.0, 442.0, 442.0, 441.0, 441.0, 441.0, 441.0, 441.0, 441.0, 441.0, 442.0, 441.0, 441.0, 441.0, 441.0, 441.0, 443.0, 444.0, 444.0, 444.0, 443.0, 442.0, 442.0, 441.0, 441.0, 441.0, 441.0, 440.0, 440.0, 439.0, 439.0, 440.0, 440.0, 440.0, 440.0, 441.0, 441.0, 441.0, 441.0, 440.0, 440.0, 441.0, 442.0, 441.0, 441.0, 441.0, 440.0, 440.0, 439.0, 439.0, 438.0, 438.0, 440.0, 441.0, 441.0, 442.0, 442.0, 441.0, 441.0, 441.0, 442.0, 441.0, 442.0, 443.0, 443.0, 443.0, 442.0, 442.0, 442.0, 443.0, 442.0, 441.0, 442.0, 441.0, 441.0, 441.0, 441.0, 440.0, 439.0, 440.0, 439.0, 439.0, 440.0, 440.0, 440.0, 440.0, 441.0, 440.0, 439.0, 440.0, 441.0, 441.0, 440.0, 440.0, 439.0, 439.0, 439.0, 440.0, 440.0, 439.0, 440.0, 441.0, 441.0, 441.0, 441.0, 441.0, 441.0, 441.0, 442.0, 442.0, 442.0, 443.0, 443.0, 443.0, 443.0, 444.0, 444.0, 443.0, 443.0, 441.0, 441.0, 441.0, 440.0, 440.0, 441.0, 441.0, 441.0, 441.0, 440.0, 440.0, 440.0, 439.0, 439.0, 439.0, 440.0, 440.0, 441.0, 441.0, 442.0, 442.0, 443.0, 442.0, 443.0, 444.0, 445.0, 444.0, 444.0, 443.0, 441.0, 441.0, 439.0, 440.0, 440.0, 440.0, 440.0, 440.0, 440.0, 439.0, 439.0, 439.0, 439.0, 440.0, 439.0, 440.0, 440.0, 439.0, 439.0, 439.0, 438.0, 439.0, 440.0, 441.0, 440.0, 440.0, 440.0, 440.0, 440.0, 440.0, 440.0, 439.0, 440.0, 441.0, 441.0, 441.0, 441.0, 441.0, 439.0, 439.0, 440.0, 441.0, 442.0, 441.0, 441.0, 442.0, 441.0, 441.0, 441.0, 440.0, 441.0, 441.0, 441.0, 441.0, 441.0, 441.0, 440.0, 441.0, 443.0, 443.0, 444.0, 444.0, 444.0, 443.0, 442.0, 441.0, 440.0, 440.0, 440.0, 441.0, 441.0, 441.0, 440.0, 441.0, 441.0, 441.0, 442.0, 441.0, 442.0, 442.0, 442.0, 441.0, 440.0, 440.0, 440.0, 439.0, 439.0, 440.0, 441.0, 440.0, 440.0, 440.0, 440.0, 440.0, 440.0, 440.0, 440.0, 442.0, 442.0, 442.0, 444.0, 444.0, 445.0, 446.0, 445.0, 443.0, 443.0, 442.0, 442.0, 441.0, 442.0, 442.0, 442.0, 442.0, 442.0, 442.0, 442.0, 441.0, 441.0, 441.0, 441.0, 441.0, 441.0, 442.0, 442.0, 442.0, 442.0, 442.0, 442.0, 442.0, 442.0, 442.0, 442.0, 443.0, 442.0, 442.0, 442.0, 444.0, 443.0, 443.0, 444.0, 443.0, 442.0, 444.0, 443.0, 443.0, 444.0, 444.0, 444.0, 444.0, 443.0, 442.0, 442.0, 442.0, 442.0, 441.0, 441.0, 441.0],
