{
  "AcquisitionMatrixPE": 104,
  "AcquisitionNumber": 1,
  "AcquisitionTime": "14:47:35.230000",
  "BandwidthPerPixelPhaseEncode": 43.054,
  "BaseResolution": 104,
  "CoilString": "C:E1_2",
  "ConversionSoftware": "dcm2niix",
  "ConversionSoftwareVersion": "v1.0.20191031",
  "DerivedVendorReportedEchoSpacing": 0.000669999,
  "DeviceSerialNumber": "18932",
  "DwellTime": 2.8e-06,
  "EchoTime": 0.02,
  "EffectiveEchoSpacing": 0.000223333,
  "FlipAngle": 30,
  "ImageComments": "Unaliased_MB2_PE2",
  "ImageOrientationPatientDICOM": [1, 0, 0, 0, 0.975535, -0.219846],
  "ImageType": [
    "ORIGINAL",
    "PRIMARY",
    "M",
    "MB",
    "ND",
    "MOSAIC"
],
  "ImagingFrequency": 297.229,
  "InPlanePhaseEncodingDirectionDICOM": "COL",
  "InstitutionAddress": "Richmond_Street_North_1151_London_409EF2_Ontario_CA_N6A_5B7",
  "InstitutionName": "Robarts_Reserch_Institute",
  "InstitutionalDepartmentName": "Department",
  "MRAcquisitionType": "2D",
  "MagneticFieldStrength": 6.98,
  "Manufacturer": "Siemens",
  "ManufacturersModelName": "Investigational_Device_7T",
  "Modality": "MR",
  "MultibandAccelerationFactor": 2,
  "ParallelReductionFactorInPlane": 3,
  "PartialFourier": 0.875,
  "PatientPosition": "HFS",
  "PercentPhaseFOV": 100,
  "PhaseEncodingDirection": "j-",
  "PhaseEncodingSteps": 91,
  "PhaseResolution": 1,
  "PixelBandwidth": 1717,
  "ProcedureStepDescription": "Diedrichsen_SeqRep4",
  "ProtocolName": "mbep2d_bold_mb2_p3_AP_2iso",
  "PulseSequenceDetails": "%CustomerSeq%_cmrr_mbep2d_bold",
  "ReceiveCoilName": "CFMM_8Tx32Rx",
  "ReconMatrixPE": 104,
  "RefLinesPE": 36,
  "RepetitionTime": 1,
  "ScanOptions": "PFP_FS",
  "ScanningSequence": "EP",
  "SequenceName": "epfid2d1_104",
  "SequenceVariant": "SK_SS",
  "SeriesDescription": "mbep2d_bold_mb2_p3_AP_2iso",
  "SeriesNumber": 15,
  "ShimSetting": [43, 2073, 130, 1348, 227, 18, 60, -240],
  "SliceThickness": 2,
  "SliceTiming": [0, 0.23, 0.4575, 0.685, 0.9125, 0.1375, 0.365, 0.595, 0.8225, 0.0475, 0.275, 0.5025, 0.73, 0.96, 0.1825, 0.4125, 0.64, 0.8675, 0.0925, 0.32, 0.5475, 0.7775, 0, 0.23, 0.4575, 0.685, 0.9125, 0.1375, 0.365, 0.595, 0.8225, 0.0475, 0.275, 0.5025, 0.73, 0.96, 0.1825, 0.4125, 0.64, 0.8675, 0.0925, 0.32, 0.5475, 0.7775],
  "SoftwareVersions": "syngo_MR_B17",
  "SpacingBetweenSlices": 2,
  "StationName": "MASTER",
  "TaskName": "dsp",
  "TotalReadoutTime": 0.0230033,
  "TxRefAmp": 120,
  "dcmmeta_affine": [
    [-2.0, 0.0, 0.0, 105.4527816772461],
    [0.0, 1.9510691165924072, -0.4396924078464508, -105.30754089355469],
    [0.0, 0.4396924078464508, 1.9510689973831177, -38.27162170410156],
    [0.0, 0.0, 0.0, 1.0]
],
  "dcmmeta_reorient_transform": [
    [0.0, -1.0, 0.0, 103.0],
    [1.0, 0.0, 0.0, 0.0],
    [0.0, 0.0, 1.0, 0.0],
    [0.0, 0.0, 0.0, 1.0]
],
  "dcmmeta_shape": [104, 104, 44, 330],
  "dcmmeta_slice_dim": 2,
  "dcmmeta_version": 0.6,
  "global": {
    "const": {
      "AcquisitionMatrix": [104, 0, 0, 104],
      "AngioFlag": "N",
      "BitsAllocated": 16,
      "BitsStored": 12,
      "Columns": 728,
      "EchoNumbers": 1,
      "EchoTime": 20.0,
      "EchoTrainLength": 1,
      "FlipAngle": 30.0,
      "HighBit": 11,
      "ImageOrientationPatient": [1.0, 0.0, 0.0, 0.0, 0.97553454431481, -0.2198462027157],
      "ImagePositionPatient": [-729.45278453827, -704.38612969124, 144.20072741813],
      "ImageType": [
        "ORIGINAL",
        "PRIMARY",
        "M",
        "MB",
        "ND",
        "MOSAIC"
],
      "ImagedNucleus": "1H",
      "ImagingFrequency": 297.22876,
      "InPlanePhaseEncodingDirection": "COL",
      "MRAcquisitionType": "2D",
      "MagneticFieldStrength": 6.98,
      "Manufacturer": "SIEMENS",
      "ManufacturerModelName": "Investigational_Device_7T",
      "Modality": "MR",
      "NumberOfAverages": 1.0,
      "NumberOfPhaseEncodingSteps": 91,
      "PercentPhaseFieldOfView": 100.0,
      "PercentSampling": 100.0,
      "PerformedProcedureStepStartTime": "141304.296000",
      "PhotometricInterpretation": "MONOCHROME2",
      "PixelBandwidth": 1717.0,
      "PixelRepresentation": 0,
      "PixelSpacing": [2.0, 2.0],
      "ProtocolName": "mbep2d_bold_mb2_p3_AP 2iso",
      "RepetitionTime": 1000.0,
      "Rows": 728,
      "SAR": 0.0,
      "SamplesPerPixel": 1,
      "ScanOptions": [
        "PFP",
        "FS"
],
      "ScanningSequence": "EP",
      "SequenceName": "epfid2d1_104",
      "SequenceVariant": [
        "SK",
        "SS"
],
      "SeriesDescription": "mbep2d_bold_mb2_p3_AP 2iso",
      "SeriesNumber": 15,
      "SeriesTime": "144806.046000",
      "SliceLocation": -14.183824946493,
      "SliceThickness": 2.0,
      "SmallestImagePixelValue": 0,
      "SoftwareVersions": "syngo MR B17",
      "SpacingBetweenSlices": 1.9999999517033,
      "SpecificCharacterSet": "ISO_IR 100",
      "StudyID": "1",
      "StudyTime": "141304.171000",
      "TransmitCoilName": "CFMM_8Tx32Rx",
      "VariableFlipAngleFlag": "N",
      "WindowCenterWidthExplanation": "Algo1",
      "dBdt": 0.0},
    "slices": {}
  },
  "time": {
    "samples": {
      "AcquisitionNumber": [1, 2, 3, 4, 5, 6, 7, 8, 9, 10, 11, 12, 13, 14, 15, 16, 17, 18, 19, 20, 21, 22, 23, 24, 25, 26, 27, 28, 29, 30, 31, 32, 33, 34, 35, 36, 37, 38, 39, 40, 41, 42, 43, 44, 45, 46, 47, 48, 49, 50, 51, 52, 53, 54, 55, 56, 57, 58, 59, 60, 61, 62, 63, 64, 65, 66, 67, 68, 69, 70, 71, 72, 73, 74, 75, 76, 77, 78, 79, 80, 81, 82, 83, 84, 85, 86, 87, 88, 89, 90, 91, 92, 93, 94, 95, 96, 97, 98, 99, 100, 101, 102, 103, 104, 105, 106, 107, 108, 109, 110, 111, 112, 113, 114, 115, 116, 117, 118, 119, 120, 121, 122, 123, 124, 125, 126, 127, 128, 129, 130, 131, 132, 133, 134, 135, 136, 137, 138, 139, 140, 141, 142, 143, 144, 145, 146, 147, 148, 149, 150, 151, 152, 153, 154, 155, 156, 157, 158, 159, 160, 161, 162, 163, 164, 165, 166, 167, 168, 169, 170, 171, 172, 173, 174, 175, 176, 177, 178, 179, 180, 181, 182, 183, 184, 185, 186, 187, 188, 189, 190, 191, 192, 193, 194, 195, 196, 197, 198, 199, 200, 201, 202, 203, 204, 205, 206, 207, 208, 209, 210, 211, 212, 213, 214, 215, 216, 217, 218, 219, 220, 221, 222, 223, 224, 225, 226, 227, 228, 229, 230, 231, 232, 233, 234, 235, 236, 237, 238, 239, 240, 241, 242, 243, 244, 245, 246, 247, 248, 249, 250, 251, 252, 253, 254, 255, 256, 257, 258, 259, 260, 261, 262, 263, 264, 265, 266, 267, 268, 269, 270, 271, 272, 273, 274, 275, 276, 277, 278, 279, 280, 281, 282, 283, 284, 285, 286, 287, 288, 289, 290, 291, 292, 293, 294, 295, 296, 297, 298, 299, 300, 301, 302, 303, 304, 305, 306, 307, 308, 309, 310, 311, 312, 313, 314, 315, 316, 317, 318, 319, 320, 321, 322, 323, 324, 325, 326, 327, 328, 329, 330],
      "AcquisitionTime": ["144735.230000", "144736.235000", "144737.240000", "144738.242500", "144739.247500", "144740.250000", "144741.255000", "144742.260000", "144743.262500", "144744.267500", "144745.270000", "144746.275000", "144747.280000", "144748.282500", "144749.287500", "144750.290000", "144751.295000", "144752.300000", "144753.302500", "144754.307500", "144755.310000", "144756.315000", "144757.320000", "144758.322500", "144759.327500", "144800.332500", "144801.335000", "144802.340000", "144803.342500", "144804.347500", "144805.352500", "144806.355000", "144807.360000", "144808.362500", "144809.367500", "144810.372500", "144811.375000", "144812.380000", "144813.382500", "144814.387500", "144815.392500", "144816.395000", "144817.400000", "144818.402500", "144819.407500", "144820.412500", "144821.415000", "144822.420000", "144823.422500", "144824.427500", "144825.432500", "144826.435000", "144827.440000", "144828.442500", "144829.447500", "144830.452500", "144831.455000", "144832.460000", "144833.465000", "144834.467500", "144835.472500", "144836.475000", "144837.480000", "144838.485000", "144839.487500", "144840.492500", "144841.495000", "144842.500000", "144843.505000", "144844.507500", "144845.512500", "144846.515000", "144847.520000", "144848.525000", "144849.527500", "144850.532500", "144851.535000", "144852.540000", "144853.545000", "144854.547500", "144855.552500", "144856.555000", "144857.560000", "144858.565000", "144859.567500", "144900.572500", "144901.577500", "144902.580000", "144903.585000", "144904.587500", "144905.592500", "144906.597500", "144907.600000", "144908.605000", "144909.607500", "144910.612500", "144911.617500", "144912.620000", "144913.625000", "144914.627500", "144915.632500", "144916.637500", "144917.640000", "144918.645000", "144919.647500", "144920.652500", "144921.657500", "144922.660000", "144923.665000", "144924.667500", "144925.672500", "144926.677500", "144927.680000", "144928.685000", "144929.687500", "144930.692500", "144931.697500", "144932.700000", "144933.705000", "144934.710000", "144935.712500", "144936.717500", "144937.720000", "144938.725000", "144939.730000", "144940.732500", "144941.737500", "144942.740000", "144943.745000", "144944.750000", "144945.752500", "144946.757500", "144947.760000", "144948.765000", "144949.770000", "144950.772500", "144951.777500", "144952.780000", "144953.785000", "144954.790000", "144955.792500", "144956.797500", "144957.800000", "144958.805000", "144959.810000", "145000.812500", "145001.817500", "145002.822500", "145003.825000", "145004.830000", "145005.832500", "145006.837500", "145007.842500", "145008.845000", "145009.850000", "145010.852500", "145011.857500", "145012.862500", "145013.865000", "145014.870000", "145015.872500", "145016.877500", "145017.882500", "145018.885000", "145019.890000", "145020.892500", "145021.897500", "145022.902500", "145023.905000", "145024.910000", "145025.912500", "145026.917500", "145027.922500", "145028.925000", "145029.930000", "145030.932500", "145031.937500", "145032.942500", "145033.945000", "145034.950000", "145035.955000", "145036.957500", "145037.962500", "145038.965000", "145039.970000", "145040.975000", "145041.977500", "145042.982500", "145043.985000", "145044.990000", "145045.995000", "145046.997500", "145048.002500", "145049.005000", "145050.010000", "145051.015000", "145052.017500", "145053.022500", "145054.025000", "145055.030000", "145056.035000", "145057.037500", "145058.042500", "145059.045000", "145100.050000", "145101.055000", "145102.057500", "145103.062500", "145104.065000", "145105.070000", "145106.075000", "145107.077500", "145108.082500", "145109.087500", "145110.090000", "145111.095000", "145112.097500", "145113.102500", "145114.107500", "145115.110000", "145116.115000", "145117.117500", "145118.122500", "145119.127500", "145120.130000", "145121.135000", "145122.137500", "145123.142500", "145124.147500", "145125.150000", "145126.155000", "145127.157500", "145128.162500", "145129.167500", "145130.170000", "145131.175000", "145132.177500", "145133.182500", "145134.187500", "145135.190000", "145136.195000", "145137.200000", "145138.202500", "145139.207500", "145140.210000", "145141.215000", "145142.220000", "145143.222500", "145144.227500", "145145.230000", "145146.235000", "145147.240000", "145148.242500", "145149.247500", "145150.250000", "145151.255000", "145152.260000", "145153.262500", "145154.267500", "145155.270000", "145156.275000", "145157.280000", "145158.282500", "145159.287500", "145200.290000", "145201.295000", "145202.300000", "145203.302500", "145204.307500", "145205.310000", "145206.315000", "145207.320000", "145208.322500", "145209.327500", "145210.332500", "145211.335000", "145212.340000", "145213.342500", "145214.347500", "145215.352500", "145216.355000", "145217.360000", "145218.362500", "145219.367500", "145220.372500", "145221.375000", "145222.380000", "145223.382500", "145224.387500", "145225.392500", "145226.395000", "145227.400000", "145228.402500", "145229.407500", "145230.412500", "145231.415000", "145232.420000", "145233.422500", "145234.427500", "145235.432500", "145236.435000", "145237.440000", "145238.442500", "145239.447500", "145240.452500", "145241.455000", "145242.460000", "145243.465000", "145244.467500", "145245.472500", "145246.475000", "145247.480000", "145248.485000", "145249.487500", "145250.492500", "145251.495000", "145252.500000", "145253.505000", "145254.507500", "145255.512500", "145256.515000", "145257.520000", "145258.525000", "145259.527500", "145300.532500", "145301.535000", "145302.540000", "145303.545000", "145304.547500", "145305.552500"],
      "ContentTime": ["144806.046000", "144806.046000", "144806.046000", "144806.062000", "144806.062000", "144806.062000", "144806.062000", "144806.062000", "144806.062000", "144806.062000", "144806.078000", "144806.078000", "144806.078000", "144806.078000", "144806.078000", "144806.078000", "144806.078000", "144806.093000", "144806.093000", "144806.093000", "144806.093000", "144806.093000", "144806.109000", "144806.109000", "144806.109000", "144806.109000", "144806.109000", "144806.109000", "144806.109000", "144826.015000", "144826.015000", "144826.015000", "144826.015000", "144826.031000", "144826.031000", "144826.031000", "144826.031000", "144826.031000", "144826.031000", "144826.031000", "144826.046000", "144826.046000", "144826.046000", "144826.046000", "144826.046000", "144826.046000", "144826.062000", "144826.062000", "144826.062000", "144846.015000", "144846.015000", "144846.015000", "144846.015000", "144846.015000", "144846.015000", "144846.031000", "144846.031000", "144846.031000", "144846.031000", "144846.046000", "144846.046000", "144846.046000", "144846.046000", "144846.046000", "144846.046000", "144846.046000", "144846.046000", "144846.062000", "144846.062000", "144906.015000", "144906.015000", "144906.031000", "144906.031000", "144906.031000", "144906.031000", "144906.031000", "144906.031000", "144906.031000", "144906.046000", "144906.046000", "144906.046000", "144906.046000", "144906.046000", "144906.062000", "144906.062000", "144906.062000", "144906.062000", "144906.062000", "144906.062000", "144926.015000", "144926.015000", "144926.015000", "144926.015000", "144926.015000", "144926.015000", "144926.031000", "144926.031000", "144926.031000", "144926.031000", "144926.031000", "144926.031000", "144926.031000", "144926.046000", "144926.046000", "144926.046000", "144926.046000", "144926.046000", "144926.046000", "144926.046000", "144946.015000", "144946.015000", "144946.015000", "144946.015000", "144946.015000", "144946.015000", "144946.031000", "144946.031000", "144946.031000", "144946.031000", "144946.031000", "144946.031000", "144946.031000", "144946.046000", "144946.046000", "144946.046000", "144946.046000", "144946.046000", "144946.062000", "144946.062000", "145006.015000", "145006.015000", "145006.015000", "145006.015000", "145006.031000", "145006.031000", "145006.031000", "145006.031000", "145006.031000", "145006.031000", "145006.031000", "145006.046000", "145006.046000", "145006.046000", "145006.046000", "145006.046000", "145006.046000", "145006.062000", "145006.062000", "145006.062000", "145026.015000", "145026.015000", "145026.015000", "145026.015000", "145026.015000", "145026.015000", "145026.031000", "145026.031000", "145026.031000", "145026.031000", "145026.031000", "145026.031000", "145026.046000", "145026.046000", "145026.046000", "145026.046000", "145026.046000", "145026.046000", "145026.046000", "145026.062000", "145046.015000", "145046.015000", "145046.015000", "145046.015000", "145046.015000", "145046.015000", "145046.031000", "145046.031000", "145046.031000", "145046.031000", "145046.031000", "145046.031000", "145046.031000", "145046.046000", "145046.046000", "145046.046000", "145046.046000", "145046.046000", "145046.046000", "145046.046000", "145106.015000", "145106.015000", "145106.015000", "145106.015000", "145106.015000", "145106.015000", "145106.031000", "145106.031000", "145106.031000", "145106.031000", "145106.031000", "145106.031000", "145106.031000", "145106.046000", "145106.046000", "145106.046000", "145106.046000", "145106.046000", "145106.046000", "145106.046000", "145126.015000", "145126.015000", "145126.015000", "145126.031000", "145126.031000", "145126.031000", "145126.031000", "145126.031000", "145126.031000", "145126.031000", "145126.031000", "145126.046000", "145126.046000", "145126.046000", "145126.046000", "145126.046000", "145126.046000", "145126.046000", "145126.062000", "145126.062000", "145146.015000", "145146.015000", "145146.015000", "145146.015000", "145146.015000", "145146.015000", "145146.031000", "145146.031000", "145146.031000", "145146.031000", "145146.031000", "145146.046000", "145146.046000", "145146.046000", "145146.046000", "145146.046000", "145146.046000", "145146.046000", "145146.062000", "145146.062000", "145206.015000", "145206.015000", "145206.015000", "145206.015000", "145206.015000", "145206.031000", "145206.031000", "145206.031000", "145206.046000", "145206.046000", "145206.046000", "145206.046000", "145206.046000", "145206.046000", "145206.046000", "145206.062000", "145206.062000", "145206.062000", "145206.062000", "145206.062000", "145226.015000", "145226.015000", "145226.015000", "145226.015000", "145226.015000", "145226.015000", "145226.031000", "145226.031000", "145226.031000", "145226.031000", "145226.031000", "145226.031000", "145226.031000", "145226.031000", "145226.046000", "145226.046000", "145226.046000", "145226.046000", "145226.046000", "145226.062000", "145246.015000", "145246.015000", "145246.015000", "145246.015000", "145246.015000", "145246.015000", "145246.031000", "145246.031000", "145246.031000", "145246.031000", "145246.046000", "145246.046000", "145246.046000", "145246.046000", "145246.046000", "145246.046000", "145246.046000", "145246.062000", "145246.062000", "145246.062000", "145306.015000", "145306.015000", "145306.015000", "145306.015000", "145306.015000", "145306.015000", "145306.031000", "145306.031000", "145306.031000", "145306.031000", "145306.031000", "145306.031000", "145306.031000", "145306.046000", "145306.046000", "145306.046000", "145306.046000", "145306.046000", "145306.062000", "145306.062000", "145311.359000"],
      "InstanceCreationTime": ["144806.046000", "144806.046000", "144806.046000", "144806.062000", "144806.062000", "144806.062000", "144806.062000", "144806.062000", "144806.062000", "144806.062000", "144806.078000", "144806.078000", "144806.078000", "144806.078000", "144806.078000", "144806.078000", "144806.078000", "144806.093000", "144806.093000", "144806.093000", "144806.093000", "144806.093000", "144806.109000", "144806.109000", "144806.109000", "144806.109000", "144806.109000", "144806.109000", "144806.109000", "144826.015000", "144826.015000", "144826.015000", "144826.015000", "144826.031000", "144826.031000", "144826.031000", "144826.031000", "144826.031000", "144826.031000", "144826.031000", "144826.046000", "144826.046000", "144826.046000", "144826.046000", "144826.046000", "144826.046000", "144826.062000", "144826.062000", "144826.062000", "144846.015000", "144846.015000", "144846.015000", "144846.015000", "144846.015000", "144846.015000", "144846.031000", "144846.031000", "144846.031000", "144846.031000", "144846.046000", "144846.046000", "144846.046000", "144846.046000", "144846.046000", "144846.046000", "144846.046000", "144846.046000", "144846.062000", "144846.062000", "144906.015000", "144906.015000", "144906.031000", "144906.031000", "144906.031000", "144906.031000", "144906.031000", "144906.031000", "144906.031000", "144906.046000", "144906.046000", "144906.046000", "144906.046000", "144906.046000", "144906.062000", "144906.062000", "144906.062000", "144906.062000", "144906.062000", "144906.062000", "144926.015000", "144926.015000", "144926.015000", "144926.015000", "144926.015000", "144926.015000", "144926.031000", "144926.031000", "144926.031000", "144926.031000", "144926.031000", "144926.031000", "144926.031000", "144926.046000", "144926.046000", "144926.046000", "144926.046000", "144926.046000", "144926.046000", "144926.046000", "144946.015000", "144946.015000", "144946.015000", "144946.015000", "144946.015000", "144946.015000", "144946.031000", "144946.031000", "144946.031000", "144946.031000", "144946.031000", "144946.031000", "144946.031000", "144946.046000", "144946.046000", "144946.046000", "144946.046000", "144946.046000", "144946.062000", "144946.062000", "145006.015000", "145006.015000", "145006.015000", "145006.015000", "145006.031000", "145006.031000", "145006.031000", "145006.031000", "145006.031000", "145006.031000", "145006.031000", "145006.046000", "145006.046000", "145006.046000", "145006.046000", "145006.046000", "145006.046000", "145006.062000", "145006.062000", "145006.062000", "145026.015000", "145026.015000", "145026.015000", "145026.015000", "145026.015000", "145026.015000", "145026.031000", "145026.031000", "145026.031000", "145026.031000", "145026.031000", "145026.031000", "145026.046000", "145026.046000", "145026.046000", "145026.046000", "145026.046000", "145026.046000", "145026.046000", "145026.062000", "145046.015000", "145046.015000", "145046.015000", "145046.015000", "145046.015000", "145046.015000", "145046.031000", "145046.031000", "145046.031000", "145046.031000", "145046.031000", "145046.031000", "145046.031000", "145046.046000", "145046.046000", "145046.046000", "145046.046000", "145046.046000", "145046.046000", "145046.046000", "145106.015000", "145106.015000", "145106.015000", "145106.015000", "145106.015000", "145106.015000", "145106.031000", "145106.031000", "145106.031000", "145106.031000", "145106.031000", "145106.031000", "145106.031000", "145106.046000", "145106.046000", "145106.046000", "145106.046000", "145106.046000", "145106.046000", "145106.046000", "145126.015000", "145126.015000", "145126.015000", "145126.031000", "145126.031000", "145126.031000", "145126.031000", "145126.031000", "145126.031000", "145126.031000", "145126.031000", "145126.046000", "145126.046000", "145126.046000", "145126.046000", "145126.046000", "145126.046000", "145126.046000", "145126.062000", "145126.062000", "145146.015000", "145146.015000", "145146.015000", "145146.015000", "145146.015000", "145146.015000", "145146.031000", "145146.031000", "145146.031000", "145146.031000", "145146.031000", "145146.046000", "145146.046000", "145146.046000", "145146.046000", "145146.046000", "145146.046000", "145146.046000", "145146.062000", "145146.062000", "145206.015000", "145206.015000", "145206.015000", "145206.015000", "145206.015000", "145206.031000", "145206.031000", "145206.031000", "145206.046000", "145206.046000", "145206.046000", "145206.046000", "145206.046000", "145206.046000", "145206.046000", "145206.062000", "145206.062000", "145206.062000", "145206.062000", "145206.062000", "145226.015000", "145226.015000", "145226.015000", "145226.015000", "145226.015000", "145226.015000", "145226.031000", "145226.031000", "145226.031000", "145226.031000", "145226.031000", "145226.031000", "145226.031000", "145226.031000", "145226.046000", "145226.046000", "145226.046000", "145226.046000", "145226.046000", "145226.062000", "145246.015000", "145246.015000", "145246.015000", "145246.015000", "145246.015000", "145246.015000", "145246.031000", "145246.031000", "145246.031000", "145246.031000", "145246.046000", "145246.046000", "145246.046000", "145246.046000", "145246.046000", "145246.046000", "145246.046000", "145246.062000", "145246.062000", "145246.062000", "145306.015000", "145306.015000", "145306.015000", "145306.015000", "145306.015000", "145306.015000", "145306.031000", "145306.031000", "145306.031000", "145306.031000", "145306.031000", "145306.031000", "145306.031000", "145306.046000", "145306.046000", "145306.046000", "145306.046000", "145306.046000", "145306.062000", "145306.062000", "145311.359000"],
      "InstanceNumber": [1, 2, 3, 4, 5, 6, 7, 8, 9, 10, 11, 12, 13, 14, 15, 16, 17, 18, 19, 20, 21, 22, 23, 24, 25, 26, 27, 28, 29, 30, 31, 32, 33, 34, 35, 36, 37, 38, 39, 40, 41, 42, 43, 44, 45, 46, 47, 48, 49, 50, 51, 52, 53, 54, 55, 56, 57, 58, 59, 60, 61, 62, 63, 64, 65, 66, 67, 68, 69, 70, 71, 72, 73, 74, 75, 76, 77, 78, 79, 80, 81, 82, 83, 84, 85, 86, 87, 88, 89, 90, 91, 92, 93, 94, 95, 96, 97, 98, 99, 100, 101, 102, 103, 104, 105, 106, 107, 108, 109, 110, 111, 112, 113, 114, 115, 116, 117, 118, 119, 120, 121, 122, 123, 124, 125, 126, 127, 128, 129, 130, 131, 132, 133, 134, 135, 136, 137, 138, 139, 140, 141, 142, 143, 144, 145, 146, 147, 148, 149, 150, 151, 152, 153, 154, 155, 156, 157, 158, 159, 160, 161, 162, 163, 164, 165, 166, 167, 168, 169, 170, 171, 172, 173, 174, 175, 176, 177, 178, 179, 180, 181, 182, 183, 184, 185, 186, 187, 188, 189, 190, 191, 192, 193, 194, 195, 196, 197, 198, 199, 200, 201, 202, 203, 204, 205, 206, 207, 208, 209, 210, 211, 212, 213, 214, 215, 216, 217, 218, 219, 220, 221, 222, 223, 224, 225, 226, 227, 228, 229, 230, 231, 232, 233, 234, 235, 236, 237, 238, 239, 240, 241, 242, 243, 244, 245, 246, 247, 248, 249, 250, 251, 252, 253, 254, 255, 256, 257, 258, 259, 260, 261, 262, 263, 264, 265, 266, 267, 268, 269, 270, 271, 272, 273, 274, 275, 276, 277, 278, 279, 280, 281, 282, 283, 284, 285, 286, 287, 288, 289, 290, 291, 292, 293, 294, 295, 296, 297, 298, 299, 300, 301, 302, 303, 304, 305, 306, 307, 308, 309, 310, 311, 312, 313, 314, 315, 316, 317, 318, 319, 320, 321, 322, 323, 324, 325, 326, 327, 328, 329, 330],
      "LargestImagePixelValue": [2560, 2537, 2537, 2508, 2549, 2491, 2537, 2515, 2547, 2523, 2499, 2519, 2522, 2513, 2507, 2484, 2505, 2540, 2494, 2509, 2516, 2516, 2486, 2540, 2506, 2504, 2495, 2500, 2512, 2494, 2505, 2497, 2529, 2560, 2544, 2515, 2483, 2515, 2495, 2519, 2472, 2521, 2480, 2510, 2507, 2481, 2557, 2499, 2511, 2499, 2519, 2486, 2548, 2506, 2536, 2506, 2519, 2525, 2517, 2538, 2534, 2529, 2524, 2499, 2491, 2513, 2504, 2515, 2499, 2502, 2472, 2509, 2477, 2508, 2503, 2498, 2510, 2492, 2504, 2496, 2492, 2526, 2549, 2503, 2532, 2503, 2535, 2454, 2498, 2484, 2468, 2480, 2455, 2467, 2475, 2487, 2469, 2466, 2522, 2460, 2481, 2466, 2450, 2446, 2484, 2482, 2502, 2474, 2501, 2509, 2489, 2532, 2551, 2560, 2563, 2531, 2552, 2562, 2542, 2563, 2572, 2536, 2539, 2488, 2484, 2501, 2496, 2547, 2483, 2516, 2534, 2575, 2514, 2566, 2540, 2502, 2573, 2532, 2548, 2573, 2572, 2571, 2577, 2568, 2550, 2532, 2527, 2550, 2529, 2528, 2539, 2548, 2517, 2528, 2549, 2535, 2549, 2565, 2531, 2535, 2550, 2583, 2530, 2524, 2496, 2525, 2523, 2491, 2512, 2494, 2484, 2470, 2509, 2464, 2501, 2568, 2502, 2490, 2516, 2536, 2550, 2499, 2509, 2538, 2493, 2516, 2555, 2553, 2532, 2503, 2527, 2476, 2493, 2492, 2492, 2454, 2504, 2502, 2497, 2516, 2540, 2496, 2497, 2504, 2513, 2555, 2573, 2498, 2556, 2520, 2588, 2508, 2499, 2543, 2497, 2557, 2503, 2495, 2481, 2480, 2570, 2510, 2529, 2499, 2541, 2534, 2486, 2520, 2489, 2514, 2522, 2534, 2502, 2495, 2476, 2462, 2505, 2547, 2504, 2501, 2535, 2474, 2500, 2482, 2494, 2536, 2528, 2504, 2512, 2533, 2538, 2499, 2525, 2535, 2528, 2530, 2543, 2589, 2484, 2532, 2523, 2556, 2543, 2556, 2577, 2578, 2526, 2577, 2525, 2515, 2530, 2539, 2546, 2570, 2562, 2545, 2560, 2584, 2532, 2541, 2578, 2563, 2591, 2548, 2552, 2552, 2555, 2578, 2526, 2601, 2570, 2518, 2514, 2537, 2546, 2557, 2551, 2552, 2507, 2551, 2571, 2510, 2555, 2535, 2505, 2548, 2534, 2553, 2553, 2512, 2591, 2580, 2517, 2549, 2546, 2504, 2536, 2500, 2505, 2508, 2542, 2533, 2524, 2535, 2540, 2536, 2546, 2536, 2535, 2525],
      "WindowCenter": [423.0, 423.0, 423.0, 422.0, 423.0, 423.0, 422.0, 422.0, 421.0, 420.0, 421.0, 421.0, 422.0, 423.0, 424.0, 424.0, 424.0, 424.0, 424.0, 424.0, 424.0, 424.0, 423.0, 424.0, 422.0, 421.0, 422.0, 422.0, 423.0, 421.0, 422.0, 422.0, 422.0, 422.0, 422.0, 422.0, 422.0, 423.0, 423.0, 423.0, 423.0, 422.0, 421.0, 422.0, 421.0, 421.0, 422.0, 422.0, 422.0, 422.0, 422.0, 422.0, 421.0, 421.0, 421.0, 420.0, 421.0, 421.0, 421.0, 422.0, 422.0, 423.0, 423.0, 422.0, 421.0, 422.0, 422.0, 422.0, 422.0, 423.0, 423.0, 423.0, 423.0, 422.0, 422.0, 422.0, 422.0, 423.0, 423.0, 424.0, 423.0, 424.0, 423.0, 423.0, 423.0, 423.0, 422.0, 422.0, 422.0, 423.0, 423.0, 423.0, 423.0, 422.0, 422.0, 422.0, 421.0, 422.0, 422.0, 422.0, 423.0, 422.0, 422.0, 422.0, 421.0, 421.0, 422.0, 423.0, 423.0, 423.0, 422.0, 423.0, 422.0, 422.0, 422.0, 421.0, 421.0, 421.0, 422.0, 423.0, 423.0, 423.0, 423.0, 423.0, 423.0, 423.0, 422.0, 422.0, 423.0, 424.0, 424.0, 424.0, 422.0, 422.0, 421.0, 422.0, 422.0, 422.0, 422.0, 422.0, 422.0, 422.0, 422.0, 422.0, 422.0, 423.0, 423.0, 424.0, 424.0, 424.0, 424.0, 423.0, 422.0, 423.0, 424.0, 423.0, 423.0, 422.0, 422.0, 422.0, 422.0, 422.0, 422.0, 422.0, 422.0, 422.0, 422.0, 422.0, 422.0, 421.0, 422.0, 422.0, 423.0, 422.0, 422.0, 422.0, 422.0, 422.0, 422.0, 423.0, 423.0, 422.0, 423.0, 423.0, 422.0, 422.0, 422.0, 422.0, 422.0, 422.0, 422.0, 422.0, 422.0, 422.0, 422.0, 422.0, 422.0, 420.0, 420.0, 421.0, 421.0, 421.0, 422.0, 422.0, 422.0, 423.0, 424.0, 423.0, 424.0, 423.0, 422.0, 423.0, 422.0, 422.0, 422.0, 423.0, 422.0, 422.0, 422.0, 423.0, 424.0, 423.0, 423.0, 422.0, 422.0, 422.0, 422.0, 423.0, 423.0, 423.0, 423.0, 422.0, 422.0, 422.0, 422.0, 422.0, 423.0, 424.0, 423.0, 423.0, 424.0, 422.0, 422.0, 423.0, 424.0, 424.0, 423.0, 423.0, 422.0, 422.0, 422.0, 421.0, 422.0, 422.0, 423.0, 423.0, 423.0, 424.0, 424.0, 424.0, 422.0, 422.0, 423.0, 423.0, 424.0, 423.0, 423.0, 424.0, 422.0, 422.0, 422.0, 422.0, 422.0, 423.0, 424.0, 424.0, 424.0, 424.0, 423.0, 423.0, 422.0, 422.0, 422.0, 422.0, 423.0, 422.0, 423.0, 424.0, 423.0, 424.0, 423.0, 423.0, 422.0, 423.0, 422.0, 424.0, 424.0, 424.0, 423.0, 423.0, 423.0, 424.0, 424.0, 424.0, 423.0, 424.0, 423.0, 424.0, 424.0, 422.0, 422.0, 422.0, 421.0, 422.0, 422.0, 421.0, 422.0, 422.0, 423.0, 424.0, 424.0, 424.0, 425.0, 425.0, 424.0, 423.0, 423.0, 423.0, 422.0, 421.0],
