{
  "AcquisitionMatrixPE": 104,
  "AcquisitionNumber": 1,
  "AcquisitionTime": "14:54:6.490000",
  "BandwidthPerPixelPhaseEncode": 43.054,
  "BaseResolution": 104,
  "CoilString": "C:E1_2",
  "ConversionSoftware": "dcm2niix",
  "ConversionSoftwareVersion": "v1.0.20191031",
  "DerivedVendorReportedEchoSpacing": 0.000669999,
  "DeviceSerialNumber": "18932",
  "DwellTime": 2.8e-06,
  "EchoTime": 0.02,
  "EffectiveEchoSpacing": 0.000223333,
  "FlipAngle": 30,
  "ImageComments": "Unaliased_MB2_PE2",
  "ImageOrientationPatientDICOM": [1, 0, 0, 0, 0.975535, -0.219846],
  "ImageType": [
    "ORIGINAL",
    "PRIMARY",
    "M",
    "MB",
    "ND",
    "MOSAIC"
],
  "ImagingFrequency": 297.229,
  "InPlanePhaseEncodingDirectionDICOM": "COL",
  "InstitutionAddress": "Richmond_Street_North_1151_London_409EF2_Ontario_CA_N6A_5B7",
  "InstitutionName": "Robarts_Reserch_Institute",
  "InstitutionalDepartmentName": "Department",
  "MRAcquisitionType": "2D",
  "MagneticFieldStrength": 6.98,
  "Manufacturer": "Siemens",
  "ManufacturersModelName": "Investigational_Device_7T",
  "Modality": "MR",
  "MultibandAccelerationFactor": 2,
  "ParallelReductionFactorInPlane": 3,
  "PartialFourier": 0.875,
  "PatientPosition": "HFS",
  "PercentPhaseFOV": 100,
  "PhaseEncodingDirection": "j-",
  "PhaseEncodingSteps": 91,
  "PhaseResolution": 1,
  "PixelBandwidth": 1717,
  "ProcedureStepDescription": "Diedrichsen_SeqRep4",
  "ProtocolName": "mbep2d_bold_mb2_p3_AP_2iso",
  "PulseSequenceDetails": "%CustomerSeq%_cmrr_mbep2d_bold",
  "ReceiveCoilName": "CFMM_8Tx32Rx",
  "ReconMatrixPE": 104,
  "RefLinesPE": 36,
  "RepetitionTime": 1,
  "ScanOptions": "PFP_FS",
  "ScanningSequence": "EP",
  "SequenceName": "epfid2d1_104",
  "SequenceVariant": "SK_SS",
  "SeriesDescription": "mbep2d_bold_mb2_p3_AP_2iso",
  "SeriesNumber": 17,
  "ShimSetting": [43, 2073, 130, 1348, 227, 18, 60, -240],
  "SliceThickness": 2,
  "SliceTiming": [0, 0.2275, 0.4575, 0.685, 0.9125, 0.1375, 0.365, 0.5925, 0.8225, 0.045, 0.275, 0.5025, 0.73, 0.9575, 0.1825, 0.41, 0.64, 0.8675, 0.0925, 0.32, 0.5475, 0.775, 0, 0.2275, 0.4575, 0.685, 0.9125, 0.1375, 0.365, 0.5925, 0.8225, 0.045, 0.275, 0.5025, 0.73, 0.9575, 0.1825, 0.41, 0.64, 0.8675, 0.0925, 0.32, 0.5475, 0.775],
  "SoftwareVersions": "syngo_MR_B17",
  "SpacingBetweenSlices": 2,
  "StationName": "MASTER",
  "TaskName": "dsp",
  "TotalReadoutTime": 0.0230033,
  "TxRefAmp": 120,
  "dcmmeta_affine": [
    [-2.0, 0.0, 0.0, 105.4527816772461],
    [0.0, 1.9510691165924072, -0.4396924078464508, -105.30754089355469],
    [0.0, 0.4396924078464508, 1.9510689973831177, -38.27162170410156],
    [0.0, 0.0, 0.0, 1.0]
],
  "dcmmeta_reorient_transform": [
    [0.0, -1.0, 0.0, 103.0],
    [1.0, 0.0, 0.0, 0.0],
    [0.0, 0.0, 1.0, 0.0],
    [0.0, 0.0, 0.0, 1.0]
],
  "dcmmeta_shape": [104, 104, 44, 330],
  "dcmmeta_slice_dim": 2,
  "dcmmeta_version": 0.6,
  "global": {
    "const": {
      "AcquisitionMatrix": [104, 0, 0, 104],
      "AngioFlag": "N",
      "BitsAllocated": 16,
      "BitsStored": 12,
      "Columns": 728,
      "EchoNumbers": 1,
      "EchoTime": 20.0,
      "EchoTrainLength": 1,
      "FlipAngle": 30.0,
      "HighBit": 11,
      "ImageOrientationPatient": [1.0, 0.0, 0.0, 0.0, 0.97553454431481, -0.2198462027157],
      "ImagePositionPatient": [-729.45278453827, -704.38612969124, 144.20072741813],
      "ImageType": [
        "ORIGINAL",
        "PRIMARY",
        "M",
        "MB",
        "ND",
        "MOSAIC"
],
      "ImagedNucleus": "1H",
      "ImagingFrequency": 297.228765,
      "InPlanePhaseEncodingDirection": "COL",
      "MRAcquisitionType": "2D",
      "MagneticFieldStrength": 6.98,
      "Manufacturer": "SIEMENS",
      "ManufacturerModelName": "Investigational_Device_7T",
      "Modality": "MR",
      "NumberOfAverages": 1.0,
      "NumberOfPhaseEncodingSteps": 91,
      "PercentPhaseFieldOfView": 100.0,
      "PercentSampling": 100.0,
      "PerformedProcedureStepStartTime": "141304.296000",
      "PhotometricInterpretation": "MONOCHROME2",
      "PixelBandwidth": 1717.0,
      "PixelRepresentation": 0,
      "PixelSpacing": [2.0, 2.0],
      "ProtocolName": "mbep2d_bold_mb2_p3_AP 2iso",
      "RepetitionTime": 1000.0,
      "Rows": 728,
      "SAR": 0.0,
      "SamplesPerPixel": 1,
      "ScanOptions": [
        "PFP",
        "FS"
],
      "ScanningSequence": "EP",
      "SequenceName": "epfid2d1_104",
      "SequenceVariant": [
        "SK",
        "SS"
],
      "SeriesDescription": "mbep2d_bold_mb2_p3_AP 2iso",
      "SeriesNumber": 17,
      "SeriesTime": "145441.109000",
      "SliceLocation": -14.183824946493,
      "SliceThickness": 2.0,
      "SmallestImagePixelValue": 0,
      "SoftwareVersions": "syngo MR B17",
      "SpacingBetweenSlices": 1.9999999517033,
      "SpecificCharacterSet": "ISO_IR 100",
      "StudyID": "1",
      "StudyTime": "141304.171000",
      "TransmitCoilName": "CFMM_8Tx32Rx",
      "VariableFlipAngleFlag": "N",
      "WindowCenterWidthExplanation": "Algo1",
      "dBdt": 0.0},
    "slices": {}
  },
  "time": {
    "samples": {
      "AcquisitionNumber": [1, 2, 3, 4, 5, 6, 7, 8, 9, 10, 11, 12, 13, 14, 15, 16, 17, 18, 19, 20, 21, 22, 23, 24, 25, 26, 27, 28, 29, 30, 31, 32, 33, 34, 35, 36, 37, 38, 39, 40, 41, 42, 43, 44, 45, 46, 47, 48, 49, 50, 51, 52, 53, 54, 55, 56, 57, 58, 59, 60, 61, 62, 63, 64, 65, 66, 67, 68, 69, 70, 71, 72, 73, 74, 75, 76, 77, 78, 79, 80, 81, 82, 83, 84, 85, 86, 87, 88, 89, 90, 91, 92, 93, 94, 95, 96, 97, 98, 99, 100, 101, 102, 103, 104, 105, 106, 107, 108, 109, 110, 111, 112, 113, 114, 115, 116, 117, 118, 119, 120, 121, 122, 123, 124, 125, 126, 127, 128, 129, 130, 131, 132, 133, 134, 135, 136, 137, 138, 139, 140, 141, 142, 143, 144, 145, 146, 147, 148, 149, 150, 151, 152, 153, 154, 155, 156, 157, 158, 159, 160, 161, 162, 163, 164, 165, 166, 167, 168, 169, 170, 171, 172, 173, 174, 175, 176, 177, 178, 179, 180, 181, 182, 183, 184, 185, 186, 187, 188, 189, 190, 191, 192, 193, 194, 195, 196, 197, 198, 199, 200, 201, 202, 203, 204, 205, 206, 207, 208, 209, 210, 211, 212, 213, 214, 215, 216, 217, 218, 219, 220, 221, 222, 223, 224, 225, 226, 227, 228, 229, 230, 231, 232, 233, 234, 235, 236, 237, 238, 239, 240, 241, 242, 243, 244, 245, 246, 247, 248, 249, 250, 251, 252, 253, 254, 255, 256, 257, 258, 259, 260, 261, 262, 263, 264, 265, 266, 267, 268, 269, 270, 271, 272, 273, 274, 275, 276, 277, 278, 279, 280, 281, 282, 283, 284, 285, 286, 287, 288, 289, 290, 291, 292, 293, 294, 295, 296, 297, 298, 299, 300, 301, 302, 303, 304, 305, 306, 307, 308, 309, 310, 311, 312, 313, 314, 315, 316, 317, 318, 319, 320, 321, 322, 323, 324, 325, 326, 327, 328, 329, 330],
      "AcquisitionTime": ["145406.490000", "145407.495000", "145408.497500", "145409.502500", "145410.507500", "145411.510000", "145412.515000", "145413.517500", "145414.522500", "145415.527500", "145416.530000", "145417.535000", "145418.537500", "145419.542500", "145420.547500", "145421.550000", "145422.555000", "145423.560000", "145424.562500", "145425.567500", "145426.570000", "145427.575000", "145428.580000", "145429.582500", "145430.587500", "145431.590000", "145432.595000", "145433.600000", "145434.602500", "145435.607500", "145436.610000", "145437.615000", "145438.620000", "145439.622500", "145440.627500", "145441.630000", "145442.635000", "145443.640000", "145444.642500", "145445.647500", "145446.650000", "145447.655000", "145448.660000", "145449.662500", "145450.667500", "145451.672500", "145452.675000", "145453.680000", "145454.682500", "145455.687500", "145456.692500", "145457.695000", "145458.700000", "145459.702500", "145500.707500", "145501.712500", "145502.715000", "145503.720000", "145504.722500", "145505.727500", "145506.732500", "145507.735000", "145508.740000", "145509.742500", "145510.747500", "145511.752500", "145512.755000", "145513.760000", "145514.762500", "145515.767500", "145516.772500", "145517.775000", "145518.780000", "145519.782500", "145520.787500", "145521.792500", "145522.795000", "145523.800000", "145524.805000", "145525.807500", "145526.812500", "145527.815000", "145528.820000", "145529.825000", "145530.827500", "145531.832500", "145532.835000", "145533.840000", "145534.845000", "145535.847500", "145536.852500", "145537.855000", "145538.860000", "145539.865000", "145540.867500", "145541.872500", "145542.875000", "145543.880000", "145544.885000", "145545.887500", "145546.892500", "145547.895000", "145548.900000", "145549.905000", "145550.907500", "145551.912500", "145552.915000", "145553.920000", "145554.925000", "145555.927500", "145556.932500", "145557.937500", "145558.940000", "145559.945000", "145600.947500", "145601.952500", "145602.957500", "145603.960000", "145604.965000", "145605.967500", "145606.972500", "145607.977500", "145608.980000", "145609.985000", "145610.987500", "145611.992500", "145612.997500", "145614.000000", "145615.005000", "145616.007500", "145617.012500", "145618.017500", "145619.020000", "145620.025000", "145621.027500", "145622.032500", "145623.037500", "145624.040000", "145625.045000", "145626.050000", "145627.052500", "145628.057500", "145629.060000", "145630.065000", "145631.070000", "145632.072500", "145633.077500", "145634.080000", "145635.085000", "145636.090000", "145637.092500", "145638.097500", "145639.100000", "145640.105000", "145641.110000", "145642.112500", "145643.117500", "145644.120000", "145645.125000", "145646.130000", "145647.132500", "145648.137500", "145649.140000", "145650.145000", "145651.150000", "145652.152500", "145653.157500", "145654.160000", "145655.165000", "145656.170000", "145657.172500", "145658.177500", "145659.182500", "145700.185000", "145701.190000", "145702.192500", "145703.197500", "145704.202500", "145705.205000", "145706.210000", "145707.212500", "145708.217500", "145709.222500", "145710.225000", "145711.230000", "145712.232500", "145713.237500", "145714.242500", "145715.245000", "145716.250000", "145717.252500", "145718.257500", "145719.262500", "145720.265000", "145721.270000", "145722.272500", "145723.277500", "145724.282500", "145725.285000", "145726.290000", "145727.292500", "145728.297500", "145729.302500", "145730.305000", "145731.310000", "145732.315000", "145733.317500", "145734.322500", "145735.325000", "145736.330000", "145737.335000", "145738.337500", "145739.342500", "145740.345000", "145741.350000", "145742.355000", "145743.357500", "145744.362500", "145745.365000", "145746.370000", "145747.375000", "145748.377500", "145749.382500", "145750.385000", "145751.390000", "145752.395000", "145753.397500", "145754.402500", "145755.405000", "145756.410000", "145757.415000", "145758.417500", "145759.422500", "145800.427500", "145801.430000", "145802.435000", "145803.437500", "145804.442500", "145805.447500", "145806.450000", "145807.455000", "145808.457500", "145809.462500", "145810.467500", "145811.470000", "145812.475000", "145813.477500", "145814.482500", "145815.487500", "145816.490000", "145817.495000", "145818.497500", "145819.502500", "145820.507500", "145821.510000", "145822.515000", "145823.517500", "145824.522500", "145825.527500", "145826.530000", "145827.535000", "145828.537500", "145829.542500", "145830.547500", "145831.550000", "145832.555000", "145833.560000", "145834.562500", "145835.567500", "145836.570000", "145837.575000", "145838.580000", "145839.582500", "145840.587500", "145841.590000", "145842.595000", "145843.600000", "145844.602500", "145845.607500", "145846.610000", "145847.615000", "145848.620000", "145849.622500", "145850.627500", "145851.630000", "145852.635000", "145853.640000", "145854.642500", "145855.647500", "145856.650000", "145857.655000", "145858.660000", "145859.662500", "145900.667500", "145901.672500", "145902.675000", "145903.680000", "145904.682500", "145905.687500", "145906.692500", "145907.695000", "145908.700000", "145909.702500", "145910.707500", "145911.712500", "145912.715000", "145913.720000", "145914.722500", "145915.727500", "145916.732500", "145917.735000", "145918.740000", "145919.742500", "145920.747500", "145921.752500", "145922.755000", "145923.760000", "145924.762500", "145925.767500", "145926.772500", "145927.775000", "145928.780000", "145929.782500", "145930.787500", "145931.792500", "145932.795000", "145933.800000", "145934.805000", "145935.807500", "145936.812500"],
      "ContentTime": ["145441.109000", "145441.109000", "145441.109000", "145441.109000", "145441.125000", "145441.125000", "145441.125000", "145441.125000", "145441.125000", "145441.125000", "145441.140000", "145441.140000", "145441.140000", "145441.140000", "145441.140000", "145441.140000", "145441.140000", "145441.156000", "145441.156000", "145441.156000", "145441.156000", "145441.156000", "145441.156000", "145441.171000", "145441.171000", "145441.171000", "145441.171000", "145441.171000", "145441.171000", "145441.171000", "145441.187000", "145441.187000", "145441.187000", "145501.078000", "145501.078000", "145501.078000", "145501.078000", "145501.078000", "145501.078000", "145501.093000", "145501.093000", "145501.093000", "145501.093000", "145501.093000", "145501.093000", "145501.109000", "145501.109000", "145501.109000", "145501.109000", "145501.109000", "145501.109000", "145501.109000", "145501.125000", "145521.078000", "145521.093000", "145521.093000", "145521.093000", "145521.093000", "145521.093000", "145521.093000", "145521.093000", "145521.109000", "145521.109000", "145521.109000", "145521.109000", "145521.109000", "145521.109000", "145521.109000", "145521.109000", "145521.125000", "145521.125000", "145521.125000", "145521.125000", "145541.078000", "145541.078000", "145541.078000", "145541.078000", "145541.078000", "145541.078000", "145541.093000", "145541.093000", "145541.093000", "145541.093000", "145541.093000", "145541.093000", "145541.109000", "145541.109000", "145541.109000", "145541.109000", "145541.109000", "145541.109000", "145541.109000", "145541.109000", "145601.078000", "145601.078000", "145601.078000", "145601.078000", "145601.078000", "145601.078000", "145601.093000", "145601.093000", "145601.093000", "145601.093000", "145601.093000", "145601.093000", "145601.093000", "145601.093000", "145601.109000", "145601.109000", "145601.109000", "145601.109000", "145601.109000", "145601.109000", "145621.078000", "145621.078000", "145621.078000", "145621.078000", "145621.093000", "145621.093000", "145621.093000", "145621.093000", "145621.093000", "145621.093000", "145621.093000", "145621.109000", "145621.109000", "145621.109000", "145621.109000", "145621.109000", "145621.109000", "145621.109000", "145621.125000", "145621.125000", "145641.078000", "145641.078000", "145641.078000", "145641.078000", "145641.078000", "145641.078000", "145641.093000", "145641.093000", "145641.093000", "145641.093000", "145641.093000", "145641.093000", "145641.093000", "145641.093000", "145641.109000", "145641.109000", "145641.109000", "145641.109000", "145641.109000", "145641.125000", "145701.078000", "145701.078000", "145701.093000", "145701.093000", "145701.109000", "145701.109000", "145701.109000", "145701.109000", "145701.109000", "145701.109000", "145701.109000", "145701.109000", "145701.125000", "145701.125000", "145701.125000", "145701.125000", "145701.125000", "145701.125000", "145701.125000", "145701.140000", "145721.078000", "145721.078000", "145721.078000", "145721.078000", "145721.078000", "145721.078000", "145721.093000", "145721.093000", "145721.093000", "145721.093000", "145721.109000", "145721.109000", "145721.109000", "145721.109000", "145721.109000", "145721.109000", "145721.109000", "145721.125000", "145721.125000", "145721.125000", "145741.078000", "145741.078000", "145741.078000", "145741.078000", "145741.093000", "145741.093000", "145741.093000", "145741.093000", "145741.093000", "145741.093000", "145741.109000", "145741.109000", "145741.109000", "145741.109000", "145741.109000", "145741.109000", "145741.125000", "145741.125000", "145741.125000", "145741.125000", "145801.078000", "145801.078000", "145801.078000", "145801.078000", "145801.078000", "145801.078000", "145801.093000", "145801.093000", "145801.093000", "145801.093000", "145801.093000", "145801.093000", "145801.093000", "145801.093000", "145801.109000", "145801.109000", "145801.109000", "145801.109000", "145801.125000", "145801.125000", "145821.078000", "145821.078000", "145821.078000", "145821.078000", "145821.078000", "145821.078000", "145821.093000", "145821.093000", "145821.093000", "145821.093000", "145821.093000", "145821.093000", "145821.093000", "145821.093000", "145821.109000", "145821.109000", "145821.109000", "145821.109000", "145821.125000", "145821.125000", "145841.078000", "145841.078000", "145841.078000", "145841.078000", "145841.078000", "145841.078000", "145841.093000", "145841.093000", "145841.093000", "145841.093000", "145841.093000", "145841.093000", "145841.109000", "145841.109000", "145841.109000", "145841.109000", "145841.109000", "145841.109000", "145841.109000", "145841.125000", "145901.078000", "145901.078000", "145901.078000", "145901.078000", "145901.078000", "145901.078000", "145901.093000", "145901.093000", "145901.093000", "145901.093000", "145901.093000", "145901.093000", "145901.093000", "145901.093000", "145901.109000", "145901.109000", "145901.109000", "145901.109000", "145901.109000", "145901.125000", "145921.078000", "145921.078000", "145921.078000", "145921.078000", "145921.078000", "145921.093000", "145921.093000", "145921.093000", "145921.093000", "145921.093000", "145921.093000", "145921.093000", "145921.109000", "145921.109000", "145921.109000", "145921.109000", "145921.109000", "145921.125000", "145921.125000", "145921.125000", "145942.250000", "145942.250000", "145942.250000", "145942.250000", "145942.265000", "145942.265000", "145942.265000", "145942.265000", "145942.265000", "145942.265000", "145942.265000", "145942.281000", "145942.281000", "145942.281000", "145942.281000", "145942.281000", "145942.281000"],
      "InstanceCreationTime": ["145441.109000", "145441.109000", "145441.109000", "145441.109000", "145441.125000", "145441.125000", "145441.125000", "145441.125000", "145441.125000", "145441.125000", "145441.140000", "145441.140000", "145441.140000", "145441.140000", "145441.140000", "145441.140000", "145441.140000", "145441.156000", "145441.156000", "145441.156000", "145441.156000", "145441.156000", "145441.156000", "145441.171000", "145441.171000", "145441.171000", "145441.171000", "145441.171000", "145441.171000", "145441.171000", "145441.187000", "145441.187000", "145441.187000", "145501.078000", "145501.078000", "145501.078000", "145501.078000", "145501.078000", "145501.078000", "145501.093000", "145501.093000", "145501.093000", "145501.093000", "145501.093000", "145501.093000", "145501.109000", "145501.109000", "145501.109000", "145501.109000", "145501.109000", "145501.109000", "145501.109000", "145501.125000", "145521.078000", "145521.093000", "145521.093000", "145521.093000", "145521.093000", "145521.093000", "145521.093000", "145521.093000", "145521.109000", "145521.109000", "145521.109000", "145521.109000", "145521.109000", "145521.109000", "145521.109000", "145521.109000", "145521.125000", "145521.125000", "145521.125000", "145521.125000", "145541.078000", "145541.078000", "145541.078000", "145541.078000", "145541.078000", "145541.078000", "145541.093000", "145541.093000", "145541.093000", "145541.093000", "145541.093000", "145541.093000", "145541.109000", "145541.109000", "145541.109000", "145541.109000", "145541.109000", "145541.109000", "145541.109000", "145541.109000", "145601.078000", "145601.078000", "145601.078000", "145601.078000", "145601.078000", "145601.078000", "145601.093000", "145601.093000", "145601.093000", "145601.093000", "145601.093000", "145601.093000", "145601.093000", "145601.093000", "145601.109000", "145601.109000", "145601.109000", "145601.109000", "145601.109000", "145601.109000", "145621.078000", "145621.078000", "145621.078000", "145621.078000", "145621.093000", "145621.093000", "145621.093000", "145621.093000", "145621.093000", "145621.093000", "145621.093000", "145621.109000", "145621.109000", "145621.109000", "145621.109000", "145621.109000", "145621.109000", "145621.109000", "145621.125000", "145621.125000", "145641.078000", "145641.078000", "145641.078000", "145641.078000", "145641.078000", "145641.078000", "145641.093000", "145641.093000", "145641.093000", "145641.093000", "145641.093000", "145641.093000", "145641.093000", "145641.093000", "145641.109000", "145641.109000", "145641.109000", "145641.109000", "145641.109000", "145641.125000", "145701.078000", "145701.078000", "145701.093000", "145701.093000", "145701.109000", "145701.109000", "145701.109000", "145701.109000", "145701.109000", "145701.109000", "145701.109000", "145701.109000", "145701.125000", "145701.125000", "145701.125000", "145701.125000", "145701.125000", "145701.125000", "145701.125000", "145701.140000", "145721.078000", "145721.078000", "145721.078000", "145721.078000", "145721.078000", "145721.078000", "145721.093000", "145721.093000", "145721.093000", "145721.093000", "145721.109000", "145721.109000", "145721.109000", "145721.109000", "145721.109000", "145721.109000", "145721.109000", "145721.125000", "145721.125000", "145721.125000", "145741.078000", "145741.078000", "145741.078000", "145741.078000", "145741.093000", "145741.093000", "145741.093000", "145741.093000", "145741.093000", "145741.093000", "145741.109000", "145741.109000", "145741.109000", "145741.109000", "145741.109000", "145741.109000", "145741.125000", "145741.125000", "145741.125000", "145741.125000", "145801.078000", "145801.078000", "145801.078000", "145801.078000", "145801.078000", "145801.078000", "145801.093000", "145801.093000", "145801.093000", "145801.093000", "145801.093000", "145801.093000", "145801.093000", "145801.093000", "145801.109000", "145801.109000", "145801.109000", "145801.109000", "145801.125000", "145801.125000", "145821.078000", "145821.078000", "145821.078000", "145821.078000", "145821.078000", "145821.078000", "145821.093000", "145821.093000", "145821.093000", "145821.093000", "145821.093000", "145821.093000", "145821.093000", "145821.093000", "145821.109000", "145821.109000", "145821.109000", "145821.109000", "145821.125000", "145821.125000", "145841.078000", "145841.078000", "145841.078000", "145841.078000", "145841.078000", "145841.078000", "145841.093000", "145841.093000", "145841.093000", "145841.093000", "145841.093000", "145841.093000", "145841.109000", "145841.109000", "145841.109000", "145841.109000", "145841.109000", "145841.109000", "145841.109000", "145841.125000", "145901.078000", "145901.078000", "145901.078000", "145901.078000", "145901.078000", "145901.078000", "145901.093000", "145901.093000", "145901.093000", "145901.093000", "145901.093000", "145901.093000", "145901.093000", "145901.093000", "145901.109000", "145901.109000", "145901.109000", "145901.109000", "145901.109000", "145901.125000", "145921.078000", "145921.078000", "145921.078000", "145921.078000", "145921.078000", "145921.093000", "145921.093000", "145921.093000", "145921.093000", "145921.093000", "145921.093000", "145921.093000", "145921.109000", "145921.109000", "145921.109000", "145921.109000", "145921.109000", "145921.125000", "145921.125000", "145921.125000", "145942.250000", "145942.250000", "145942.250000", "145942.250000", "145942.265000", "145942.265000", "145942.265000", "145942.265000", "145942.265000", "145942.265000", "145942.265000", "145942.281000", "145942.281000", "145942.281000", "145942.281000", "145942.281000", "145942.281000"],
      "InstanceNumber": [1, 2, 3, 4, 5, 6, 7, 8, 9, 10, 11, 12, 13, 14, 15, 16, 17, 18, 19, 20, 21, 22, 23, 24, 25, 26, 27, 28, 29, 30, 31, 32, 33, 34, 35, 36, 37, 38, 39, 40, 41, 42, 43, 44, 45, 46, 47, 48, 49, 50, 51, 52, 53, 54, 55, 56, 57, 58, 59, 60, 61, 62, 63, 64, 65, 66, 67, 68, 69, 70, 71, 72, 73, 74, 75, 76, 77, 78, 79, 80, 81, 82, 83, 84, 85, 86, 87, 88, 89, 90, 91, 92, 93, 94, 95, 96, 97, 98, 99, 100, 101, 102, 103, 104, 105, 106, 107, 108, 109, 110, 111, 112, 113, 114, 115, 116, 117, 118, 119, 120, 121, 122, 123, 124, 125, 126, 127, 128, 129, 130, 131, 132, 133, 134, 135, 136, 137, 138, 139, 140, 141, 142, 143, 144, 145, 146, 147, 148, 149, 150, 151, 152, 153, 154, 155, 156, 157, 158, 159, 160, 161, 162, 163, 164, 165, 166, 167, 168, 169, 170, 171, 172, 173, 174, 175, 176, 177, 178, 179, 180, 181, 182, 183, 184, 185, 186, 187, 188, 189, 190, 191, 192, 193, 194, 195, 196, 197, 198, 199, 200, 201, 202, 203, 204, 205, 206, 207, 208, 209, 210, 211, 212, 213, 214, 215, 216, 217, 218, 219, 220, 221, 222, 223, 224, 225, 226, 227, 228, 229, 230, 231, 232, 233, 234, 235, 236, 237, 238, 239, 240, 241, 242, 243, 244, 245, 246, 247, 248, 249, 250, 251, 252, 253, 254, 255, 256, 257, 258, 259, 260, 261, 262, 263, 264, 265, 266, 267, 268, 269, 270, 271, 272, 273, 274, 275, 276, 277, 278, 279, 280, 281, 282, 283, 284, 285, 286, 287, 288, 289, 290, 291, 292, 293, 294, 295, 296, 297, 298, 299, 300, 301, 302, 303, 304, 305, 306, 307, 308, 309, 310, 311, 312, 313, 314, 315, 316, 317, 318, 319, 320, 321, 322, 323, 324, 325, 326, 327, 328, 329, 330],
      "LargestImagePixelValue": [2537, 2557, 2514, 2541, 2440, 2488, 2466, 2420, 2514, 2479, 2507, 2483, 2476, 2459, 2469, 2503, 2490, 2507, 2509, 2499, 2507, 2486, 2474, 2522, 2531, 2519, 2497, 2531, 2497, 2447, 2511, 2511, 2530, 2457, 2492, 2478, 2563, 2485, 2557, 2489, 2412, 2503, 2518, 2535, 2536, 2477, 2464, 2506, 2505, 2501, 2515, 2551, 2520, 2507, 2495, 2528, 2524, 2526, 2479, 2454, 2535, 2489, 2457, 2518, 2518, 2459, 2511, 2496, 2500, 2475, 2493, 2516, 2524, 2569, 2563, 2527, 2510, 2507, 2563, 2463, 2520, 2508, 2511, 2509, 2512, 2485, 2510, 2453, 2517, 2456, 2480, 2525, 2502, 2513, 2528, 2556, 2494, 2548, 2542, 2609, 2509, 2525, 2515, 2490, 2504, 2488, 2492, 2535, 2504, 2564, 2517, 2538, 2523, 2495, 2513, 2501, 2501, 2549, 2490, 2521, 2514, 2506, 2504, 2500, 2524, 2554, 2455, 2516, 2574, 2508, 2448, 2469, 2578, 2477, 2475, 2502, 2509, 2583, 2556, 2522, 2512, 2574, 2519, 2544, 2568, 2575, 2561, 2599, 2582, 2570, 2619, 2588, 2551, 2585, 2516, 2560, 2552, 2593, 2534, 2545, 2546, 2541, 2520, 2519, 2540, 2568, 2554, 2522, 2538, 2537, 2496, 2546, 2483, 2480, 2499, 2456, 2496, 2483, 2526, 2494, 2531, 2546, 2539, 2505, 2468, 2539, 2480, 2492, 2524, 2486, 2481, 2484, 2481, 2489, 2496, 2485, 2458, 2465, 2531, 2527, 2463, 2466, 2430, 2499, 2492, 2484, 2509, 2517, 2501, 2500, 2458, 2490, 2448, 2463, 2473, 2475, 2464, 2449, 2511, 2492, 2501, 2549, 2485, 2544, 2504, 2499, 2506, 2546, 2495, 2462, 2531, 2485, 2529, 2472, 2466, 2493, 2481, 2549, 2520, 2456, 2511, 2500, 2476, 2476, 2473, 2474, 2528, 2545, 2491, 2462, 2479, 2498, 2494, 2484, 2532, 2556, 2451, 2562, 2502, 2473, 2485, 2501, 2491, 2508, 2498, 2533, 2458, 2497, 2547, 2562, 2498, 2491, 2533, 2539, 2527, 2556, 2521, 2548, 2463, 2581, 2530, 2517, 2473, 2488, 2520, 2486, 2482, 2464, 2475, 2506, 2452, 2523, 2493, 2413, 2488, 2482, 2468, 2454, 2487, 2516, 2506, 2465, 2454, 2496, 2471, 2556, 2473, 2511, 2515, 2470, 2495, 2564, 2504, 2491, 2460, 2518, 2485, 2530, 2523, 2516, 2526, 2552, 2490, 2452, 2525, 2445, 2545, 2460, 2437, 2453],
      "WindowCenter": [422.0, 422.0, 422.0, 421.0, 420.0, 420.0, 419.0, 419.0, 420.0, 421.0, 422.0, 421.0, 422.0, 422.0, 422.0, 422.0, 421.0, 420.0, 420.0, 421.0, 420.0, 420.0, 421.0, 421.0, 422.0, 422.0, 421.0, 420.0, 420.0, 420.0, 420.0, 421.0, 421.0, 421.0, 421.0, 422.0, 423.0, 422.0, 424.0, 422.0, 422.0, 422.0, 422.0, 422.0, 422.0, 421.0, 422.0, 421.0, 420.0, 420.0, 419.0, 419.0, 419.0, 420.0, 421.0, 421.0, 421.0, 421.0, 421.0, 420.0, 420.0, 419.0, 419.0, 419.0, 419.0, 420.0, 421.0, 422.0, 423.0, 423.0, 423.0, 423.0, 424.0, 426.0, 425.0, 424.0, 424.0, 423.0, 423.0, 423.0, 425.0, 425.0, 425.0, 424.0, 424.0, 424.0, 424.0, 424.0, 424.0, 423.0, 424.0, 424.0, 424.0, 425.0, 425.0, 425.0, 425.0, 424.0, 424.0, 425.0, 424.0, 423.0, 421.0, 420.0, 421.0, 422.0, 423.0, 425.0, 425.0, 425.0, 425.0, 423.0, 423.0, 423.0, 423.0, 423.0, 424.0, 424.0, 425.0, 425.0, 425.0, 425.0, 424.0, 425.0, 425.0, 425.0, 423.0, 423.0, 424.0, 423.0, 423.0, 424.0, 425.0, 425.0, 426.0, 426.0, 426.0, 426.0, 425.0, 425.0, 425.0, 424.0, 424.0, 424.0, 424.0, 424.0, 424.0, 424.0, 424.0, 425.0, 425.0, 425.0, 425.0, 426.0, 427.0, 427.0, 427.0, 426.0, 425.0, 425.0, 425.0, 425.0, 425.0, 425.0, 425.0, 425.0, 424.0, 424.0, 424.0, 424.0, 425.0, 426.0, 425.0, 426.0, 426.0, 425.0, 425.0, 425.0, 426.0, 425.0, 426.0, 425.0, 425.0, 424.0, 423.0, 424.0, 424.0, 424.0, 423.0, 423.0, 425.0, 425.0, 425.0, 425.0, 424.0, 423.0, 423.0, 424.0, 425.0, 426.0, 426.0, 424.0, 424.0, 424.0, 424.0, 423.0, 423.0, 422.0, 423.0, 423.0, 423.0, 423.0, 423.0, 423.0, 424.0, 425.0, 425.0, 426.0, 426.0, 425.0, 425.0, 425.0, 424.0, 425.0, 425.0, 426.0, 426.0, 425.0, 426.0, 426.0, 425.0, 425.0, 425.0, 425.0, 425.0, 425.0, 425.0, 426.0, 425.0, 424.0, 424.0, 424.0, 424.0, 425.0, 426.0, 426.0, 426.0, 427.0, 426.0, 425.0, 426.0, 425.0, 427.0, 426.0, 425.0, 424.0, 423.0, 424.0, 424.0, 424.0, 423.0, 424.0, 424.0, 424.0, 425.0, 425.0, 425.0, 425.0, 425.0, 426.0, 426.0, 426.0, 425.0, 425.0, 425.0, 426.0, 425.0, 425.0, 424.0, 424.0, 424.0, 424.0, 424.0, 425.0, 425.0, 425.0, 425.0, 424.0, 425.0, 425.0, 425.0, 425.0, 425.0, 425.0, 425.0, 425.0, 425.0, 425.0, 425.0, 426.0, 426.0, 425.0, 425.0, 425.0, 424.0, 424.0, 424.0, 425.0, 425.0, 425.0, 425.0, 425.0, 424.0, 424.0, 425.0, 426.0, 426.0, 427.0, 427.0, 427.0, 426.0, 426.0, 425.0, 425.0, 425.0, 425.0, 424.0, 423.0, 423.0, 423.0],
