{
  "AcquisitionMatrixPE": 104,
  "AcquisitionNumber": 1,
  "AcquisitionTime": "14:33:46.680000",
  "BandwidthPerPixelPhaseEncode": 43.054,
  "BaseResolution": 104,
  "CoilString": "C:E1_2",
  "ConversionSoftware": "dcm2niix",
  "ConversionSoftwareVersion": "v1.0.20191031",
  "DerivedVendorReportedEchoSpacing": 0.000669999,
  "DeviceSerialNumber": "18932",
  "DwellTime": 2.8e-06,
  "EchoTime": 0.02,
  "EffectiveEchoSpacing": 0.000223333,
  "FlipAngle": 30,
  "ImageComments": "Unaliased_MB2_PE2",
  "ImageOrientationPatientDICOM": [1, 0, 0, 0, 0.975535, -0.219846],
  "ImageType": [
    "ORIGINAL",
    "PRIMARY",
    "M",
    "MB",
    "ND",
    "MOSAIC"
],
  "ImagingFrequency": 297.229,
  "InPlanePhaseEncodingDirectionDICOM": "COL",
  "InstitutionAddress": "Richmond_Street_North_1151_London_409EF2_Ontario_CA_N6A_5B7",
  "InstitutionName": "Robarts_Reserch_Institute",
  "InstitutionalDepartmentName": "Department",
  "MRAcquisitionType": "2D",
  "MagneticFieldStrength": 6.98,
  "Manufacturer": "Siemens",
  "ManufacturersModelName": "Investigational_Device_7T",
  "Modality": "MR",
  "MultibandAccelerationFactor": 2,
  "ParallelReductionFactorInPlane": 3,
  "PartialFourier": 0.875,
  "PatientPosition": "HFS",
  "PercentPhaseFOV": 100,
  "PhaseEncodingDirection": "j-",
  "PhaseEncodingSteps": 91,
  "PhaseResolution": 1,
  "PixelBandwidth": 1717,
  "ProcedureStepDescription": "Diedrichsen_SeqRep4",
  "ProtocolName": "mbep2d_bold_mb2_p3_AP_2iso",
  "PulseSequenceDetails": "%CustomerSeq%_cmrr_mbep2d_bold",
  "ReceiveCoilName": "CFMM_8Tx32Rx",
  "ReconMatrixPE": 104,
  "RefLinesPE": 36,
  "RepetitionTime": 1,
  "ScanOptions": "PFP_FS",
  "ScanningSequence": "EP",
  "SequenceName": "epfid2d1_104",
  "SequenceVariant": "SK_SS",
  "SeriesDescription": "mbep2d_bold_mb2_p3_AP_2iso",
  "SeriesNumber": 11,
  "ShimSetting": [43, 2073, 130, 1348, 227, 18, 60, -240],
  "SliceThickness": 2,
  "SliceTiming": [0, 0.2275, 0.455, 0.6825, 0.9125, 0.1375, 0.365, 0.5925, 0.82, 0.045, 0.2725, 0.5, 0.73, 0.9575, 0.1825, 0.41, 0.6375, 0.865, 0.09, 0.32, 0.5475, 0.775, 0, 0.2275, 0.455, 0.6825, 0.9125, 0.1375, 0.365, 0.5925, 0.82, 0.045, 0.2725, 0.5, 0.73, 0.9575, 0.1825, 0.41, 0.6375, 0.865, 0.09, 0.32, 0.5475, 0.775],
  "SoftwareVersions": "syngo_MR_B17",
  "SpacingBetweenSlices": 2,
  "StationName": "MASTER",
  "TaskName": "dsp",
  "TotalReadoutTime": 0.0230033,
  "TxRefAmp": 120,
  "dcmmeta_affine": [
    [-2.0, 0.0, 0.0, 105.4527816772461],
    [0.0, 1.9510691165924072, -0.4396924078464508, -105.30754089355469],
    [0.0, 0.4396924078464508, 1.9510689973831177, -38.27162170410156],
    [0.0, 0.0, 0.0, 1.0]
],
  "dcmmeta_reorient_transform": [
    [0.0, -1.0, 0.0, 103.0],
    [1.0, 0.0, 0.0, 0.0],
    [0.0, 0.0, 1.0, 0.0],
    [0.0, 0.0, 0.0, 1.0]
],
  "dcmmeta_shape": [104, 104, 44, 330],
  "dcmmeta_slice_dim": 2,
  "dcmmeta_version": 0.6,
  "global": {
    "const": {
      "AcquisitionMatrix": [104, 0, 0, 104],
      "AngioFlag": "N",
      "BitsAllocated": 16,
      "BitsStored": 12,
      "Columns": 728,
      "EchoNumbers": 1,
      "EchoTime": 20.0,
      "EchoTrainLength": 1,
      "FlipAngle": 30.0,
      "HighBit": 11,
      "ImageOrientationPatient": [1.0, 0.0, 0.0, 0.0, 0.97553454431481, -0.2198462027157],
      "ImagePositionPatient": [-729.45278453827, -704.38612969124, 144.20072741813],
      "ImageType": [
        "ORIGINAL",
        "PRIMARY",
        "M",
        "MB",
        "ND",
        "MOSAIC"
],
      "ImagedNucleus": "1H",
      "ImagingFrequency": 297.22874,
      "InPlanePhaseEncodingDirection": "COL",
      "MRAcquisitionType": "2D",
      "MagneticFieldStrength": 6.98,
      "Manufacturer": "SIEMENS",
      "ManufacturerModelName": "Investigational_Device_7T",
      "Modality": "MR",
      "NumberOfAverages": 1.0,
      "NumberOfPhaseEncodingSteps": 91,
      "PercentPhaseFieldOfView": 100.0,
      "PercentSampling": 100.0,
      "PerformedProcedureStepStartTime": "141304.296000",
      "PhotometricInterpretation": "MONOCHROME2",
      "PixelBandwidth": 1717.0,
      "PixelRepresentation": 0,
      "PixelSpacing": [2.0, 2.0],
      "ProtocolName": "mbep2d_bold_mb2_p3_AP 2iso",
      "RepetitionTime": 1000.0,
      "Rows": 728,
      "SAR": 0.0,
      "SamplesPerPixel": 1,
      "ScanOptions": [
        "PFP",
        "FS"
],
      "ScanningSequence": "EP",
      "SequenceName": "epfid2d1_104",
      "SequenceVariant": [
        "SK",
        "SS"
],
      "SeriesDescription": "mbep2d_bold_mb2_p3_AP 2iso",
      "SeriesNumber": 11,
      "SeriesTime": "143421.109000",
      "SliceLocation": -14.183824946493,
      "SliceThickness": 2.0,
      "SmallestImagePixelValue": 0,
      "SoftwareVersions": "syngo MR B17",
      "SpacingBetweenSlices": 1.9999999517033,
      "SpecificCharacterSet": "ISO_IR 100",
      "StudyID": "1",
      "StudyTime": "141304.171000",
      "TransmitCoilName": "CFMM_8Tx32Rx",
      "VariableFlipAngleFlag": "N",
      "WindowCenterWidthExplanation": "Algo1",
      "dBdt": 0.0},
    "slices": {}
  },
  "time": {
    "samples": {
      "AcquisitionNumber": [1, 2, 3, 4, 5, 6, 7, 8, 9, 10, 11, 12, 13, 14, 15, 16, 17, 18, 19, 20, 21, 22, 23, 24, 25, 26, 27, 28, 29, 30, 31, 32, 33, 34, 35, 36, 37, 38, 39, 40, 41, 42, 43, 44, 45, 46, 47, 48, 49, 50, 51, 52, 53, 54, 55, 56, 57, 58, 59, 60, 61, 62, 63, 64, 65, 66, 67, 68, 69, 70, 71, 72, 73, 74, 75, 76, 77, 78, 79, 80, 81, 82, 83, 84, 85, 86, 87, 88, 89, 90, 91, 92, 93, 94, 95, 96, 97, 98, 99, 100, 101, 102, 103, 104, 105, 106, 107, 108, 109, 110, 111, 112, 113, 114, 115, 116, 117, 118, 119, 120, 121, 122, 123, 124, 125, 126, 127, 128, 129, 130, 131, 132, 133, 134, 135, 136, 137, 138, 139, 140, 141, 142, 143, 144, 145, 146, 147, 148, 149, 150, 151, 152, 153, 154, 155, 156, 157, 158, 159, 160, 161, 162, 163, 164, 165, 166, 167, 168, 169, 170, 171, 172, 173, 174, 175, 176, 177, 178, 179, 180, 181, 182, 183, 184, 185, 186, 187, 188, 189, 190, 191, 192, 193, 194, 195, 196, 197, 198, 199, 200, 201, 202, 203, 204, 205, 206, 207, 208, 209, 210, 211, 212, 213, 214, 215, 216, 217, 218, 219, 220, 221, 222, 223, 224, 225, 226, 227, 228, 229, 230, 231, 232, 233, 234, 235, 236, 237, 238, 239, 240, 241, 242, 243, 244, 245, 246, 247, 248, 249, 250, 251, 252, 253, 254, 255, 256, 257, 258, 259, 260, 261, 262, 263, 264, 265, 266, 267, 268, 269, 270, 271, 272, 273, 274, 275, 276, 277, 278, 279, 280, 281, 282, 283, 284, 285, 286, 287, 288, 289, 290, 291, 292, 293, 294, 295, 296, 297, 298, 299, 300, 301, 302, 303, 304, 305, 306, 307, 308, 309, 310, 311, 312, 313, 314, 315, 316, 317, 318, 319, 320, 321, 322, 323, 324, 325, 326, 327, 328, 329, 330],
      "AcquisitionTime": ["143346.680000", "143347.682500", "143348.687500", "143349.692500", "143350.695000", "143351.700000", "143352.702500", "143353.707500", "143354.712500", "143355.715000", "143356.720000", "143357.722500", "143358.727500", "143359.732500", "143400.735000", "143401.740000", "143402.742500", "143403.747500", "143404.752500", "143405.755000", "143406.760000", "143407.765000", "143408.767500", "143409.772500", "143410.775000", "143411.780000", "143412.785000", "143413.787500", "143414.792500", "143415.795000", "143416.800000", "143417.805000", "143418.807500", "143419.812500", "143420.815000", "143421.820000", "143422.825000", "143423.827500", "143424.832500", "143425.835000", "143426.840000", "143427.845000", "143428.847500", "143429.852500", "143430.855000", "143431.860000", "143432.865000", "143433.867500", "143434.872500", "143435.877500", "143436.880000", "143437.885000", "143438.887500", "143439.892500", "143440.897500", "143441.900000", "143442.905000", "143443.907500", "143444.912500", "143445.917500", "143446.920000", "143447.925000", "143448.927500", "143449.932500", "143450.937500", "143451.940000", "143452.945000", "143453.947500", "143454.952500", "143455.957500", "143456.960000", "143457.965000", "143458.967500", "143459.972500", "143500.977500", "143501.980000", "143502.985000", "143503.987500", "143504.992500", "143505.997500", "143507.000000", "143508.005000", "143509.010000", "143510.012500", "143511.017500", "143512.020000", "143513.025000", "143514.030000", "143515.032500", "143516.037500", "143517.040000", "143518.045000", "143519.050000", "143520.052500", "143521.057500", "143522.060000", "143523.065000", "143524.070000", "143525.072500", "143526.077500", "143527.080000", "143528.085000", "143529.090000", "143530.092500", "143531.097500", "143532.100000", "143533.105000", "143534.110000", "143535.112500", "143536.117500", "143537.122500", "143538.125000", "143539.130000", "143540.132500", "143541.137500", "143542.142500", "143543.145000", "143544.150000", "143545.152500", "143546.157500", "143547.162500", "143548.165000", "143549.170000", "143550.172500", "143551.177500", "143552.182500", "143553.185000", "143554.190000", "143555.192500", "143556.197500", "143557.202500", "143558.205000", "143559.210000", "143600.212500", "143601.217500", "143602.222500", "143603.225000", "143604.230000", "143605.232500", "143606.237500", "143607.242500", "143608.245000", "143609.250000", "143610.255000", "143611.257500", "143612.262500", "143613.265000", "143614.270000", "143615.275000", "143616.277500", "143617.282500", "143618.285000", "143619.290000", "143620.295000", "143621.297500", "143622.302500", "143623.305000", "143624.310000", "143625.315000", "143626.317500", "143627.322500", "143628.325000", "143629.330000", "143630.335000", "143631.337500", "143632.342500", "143633.345000", "143634.350000", "143635.355000", "143636.357500", "143637.362500", "143638.365000", "143639.370000", "143640.375000", "143641.377500", "143642.382500", "143643.387500", "143644.390000", "143645.395000", "143646.397500", "143647.402500", "143648.407500", "143649.410000", "143650.415000", "143651.417500", "143652.422500", "143653.427500", "143654.430000", "143655.435000", "143656.437500", "143657.442500", "143658.447500", "143659.450000", "143700.455000", "143701.457500", "143702.462500", "143703.467500", "143704.470000", "143705.475000", "143706.477500", "143707.482500", "143708.487500", "143709.490000", "143710.495000", "143711.500000", "143712.502500", "143713.507500", "143714.510000", "143715.515000", "143716.520000", "143717.522500", "143718.527500", "143719.530000", "143720.535000", "143721.540000", "143722.542500", "143723.547500", "143724.550000", "143725.555000", "143726.560000", "143727.562500", "143728.567500", "143729.570000", "143730.575000", "143731.580000", "143732.582500", "143733.587500", "143734.590000", "143735.595000", "143736.600000", "143737.602500", "143738.607500", "143739.610000", "143740.615000", "143741.620000", "143742.622500", "143743.627500", "143744.632500", "143745.635000", "143746.640000", "143747.642500", "143748.647500", "143749.652500", "143750.655000", "143751.660000", "143752.662500", "143753.667500", "143754.672500", "143755.675000", "143756.680000", "143757.682500", "143758.687500", "143759.692500", "143800.695000", "143801.700000", "143802.702500", "143803.707500", "143804.712500", "143805.715000", "143806.720000", "143807.722500", "143808.727500", "143809.732500", "143810.735000", "143811.740000", "143812.742500", "143813.747500", "143814.752500", "143815.755000", "143816.760000", "143817.765000", "143818.767500", "143819.772500", "143820.775000", "143821.780000", "143822.785000", "143823.787500", "143824.792500", "143825.795000", "143826.800000", "143827.805000", "143828.807500", "143829.812500", "143830.815000", "143831.820000", "143832.825000", "143833.827500", "143834.832500", "143835.835000", "143836.840000", "143837.845000", "143838.847500", "143839.852500", "143840.855000", "143841.860000", "143842.865000", "143843.867500", "143844.872500", "143845.877500", "143846.880000", "143847.885000", "143848.887500", "143849.892500", "143850.897500", "143851.900000", "143852.905000", "143853.907500", "143854.912500", "143855.917500", "143856.920000", "143857.925000", "143858.927500", "143859.932500", "143900.937500", "143901.940000", "143902.945000", "143903.947500", "143904.952500", "143905.957500", "143906.960000", "143907.965000", "143908.967500", "143909.972500", "143910.977500", "143911.980000", "143912.985000", "143913.987500", "143914.992500", "143915.997500", "143917.000000"],
      "ContentTime": ["143421.109000", "143421.125000", "143421.125000", "143421.125000", "143421.125000", "143421.140000", "143421.140000", "143421.140000", "143421.140000", "143421.140000", "143421.140000", "143421.140000", "143421.156000", "143421.156000", "143421.156000", "143421.156000", "143421.156000", "143421.171000", "143421.171000", "143421.171000", "143421.171000", "143421.187000", "143421.187000", "143421.187000", "143421.187000", "143421.187000", "143421.187000", "143421.187000", "143421.203000", "143421.203000", "143421.203000", "143421.203000", "143441.078000", "143441.078000", "143441.078000", "143441.078000", "143441.078000", "143441.078000", "143441.093000", "143441.093000", "143441.093000", "143441.093000", "143441.093000", "143441.093000", "143441.093000", "143441.109000", "143441.109000", "143441.109000", "143441.109000", "143441.125000", "143441.125000", "143441.125000", "143501.078000", "143501.078000", "143501.078000", "143501.078000", "143501.078000", "143501.078000", "143501.093000", "143501.093000", "143501.093000", "143501.093000", "143501.093000", "143501.093000", "143501.109000", "143501.109000", "143501.109000", "143501.109000", "143501.109000", "143501.125000", "143501.125000", "143501.125000", "143521.078000", "143521.093000", "143521.109000", "143521.109000", "143521.125000", "143521.140000", "143521.140000", "143521.140000", "143521.140000", "143521.156000", "143521.156000", "143521.156000", "143521.156000", "143521.156000", "143521.156000", "143521.171000", "143521.171000", "143521.171000", "143521.171000", "143521.171000", "143541.078000", "143541.093000", "143541.093000", "143541.093000", "143541.093000", "143541.093000", "143541.109000", "143541.109000", "143541.109000", "143541.109000", "143541.109000", "143541.109000", "143541.109000", "143541.125000", "143541.125000", "143541.125000", "143541.125000", "143541.125000", "143541.125000", "143541.125000", "143601.078000", "143601.078000", "143601.093000", "143601.093000", "143601.093000", "143601.093000", "143601.093000", "143601.093000", "143601.093000", "143601.093000", "143601.109000", "143601.109000", "143601.109000", "143601.109000", "143601.125000", "143601.125000", "143601.125000", "143601.140000", "143601.140000", "143601.156000", "143621.078000", "143621.078000", "143621.078000", "143621.078000", "143621.078000", "143621.078000", "143621.093000", "143621.093000", "143621.093000", "143621.093000", "143621.093000", "143621.093000", "143621.093000", "143621.109000", "143621.109000", "143621.109000", "143621.109000", "143621.109000", "143621.109000", "143621.109000", "143641.078000", "143641.078000", "143641.093000", "143641.109000", "143641.109000", "143641.125000", "143641.140000", "143641.156000", "143641.156000", "143641.156000", "143641.171000", "143641.187000", "143641.187000", "143641.187000", "143641.187000", "143641.203000", "143641.203000", "143641.203000", "143641.218000", "143641.218000", "143701.078000", "143701.078000", "143701.078000", "143701.078000", "143701.078000", "143701.078000", "143701.093000", "143701.093000", "143701.093000", "143701.093000", "143701.093000", "143701.093000", "143701.109000", "143701.109000", "143701.109000", "143701.109000", "143701.109000", "143701.125000", "143701.125000", "143701.125000", "143721.078000", "143721.078000", "143721.078000", "143721.093000", "143721.093000", "143721.093000", "143721.109000", "143721.125000", "143721.125000", "143721.125000", "143721.125000", "143721.140000", "143721.140000", "143721.140000", "143721.140000", "143721.156000", "143721.156000", "143721.156000", "143721.156000", "143721.156000", "143741.078000", "143741.078000", "143741.093000", "143741.093000", "143741.093000", "143741.093000", "143741.093000", "143741.093000", "143741.093000", "143741.109000", "143741.109000", "143741.109000", "143741.109000", "143741.109000", "143741.109000", "143741.109000", "143741.125000", "143741.125000", "143741.125000", "143741.125000", "143801.078000", "143801.078000", "143801.078000", "143801.078000", "143801.078000", "143801.078000", "143801.093000", "143801.093000", "143801.093000", "143801.093000", "143801.093000", "143801.093000", "143801.093000", "143801.093000", "143801.109000", "143801.109000", "143801.109000", "143801.109000", "143801.109000", "143801.109000", "143821.078000", "143821.078000", "143821.078000", "143821.078000", "143821.078000", "143821.078000", "143821.093000", "143821.093000", "143821.093000", "143821.093000", "143821.093000", "143821.093000", "143821.093000", "143821.109000", "143821.109000", "143821.109000", "143821.109000", "143821.109000", "143821.109000", "143821.109000", "143841.078000", "143841.078000", "143841.078000", "143841.078000", "143841.078000", "143841.093000", "143841.093000", "143841.093000", "143841.093000", "143841.093000", "143841.093000", "143841.093000", "143841.109000", "143841.109000", "143841.109000", "143841.109000", "143841.109000", "143841.125000", "143841.125000", "143841.125000", "143901.078000", "143901.093000", "143901.093000", "143901.093000", "143901.093000", "143901.093000", "143901.093000", "143901.093000", "143901.109000", "143901.109000", "143901.109000", "143901.109000", "143901.109000", "143901.109000", "143901.125000", "143901.125000", "143901.125000", "143901.140000", "143901.140000", "143901.140000", "143923.078000", "143923.078000", "143923.078000", "143923.093000", "143923.093000", "143923.093000", "143923.093000", "143923.109000", "143923.109000", "143923.109000", "143923.109000", "143923.109000", "143923.109000", "143923.109000", "143923.109000", "143923.125000", "143923.125000", "143923.125000"],
      "InstanceCreationTime": ["143421.109000", "143421.125000", "143421.125000", "143421.125000", "143421.125000", "143421.140000", "143421.140000", "143421.140000", "143421.140000", "143421.140000", "143421.140000", "143421.140000", "143421.156000", "143421.156000", "143421.156000", "143421.156000", "143421.156000", "143421.171000", "143421.171000", "143421.171000", "143421.171000", "143421.187000", "143421.187000", "143421.187000", "143421.187000", "143421.187000", "143421.187000", "143421.187000", "143421.203000", "143421.203000", "143421.203000", "143421.203000", "143441.078000", "143441.078000", "143441.078000", "143441.078000", "143441.078000", "143441.078000", "143441.093000", "143441.093000", "143441.093000", "143441.093000", "143441.093000", "143441.093000", "143441.093000", "143441.109000", "143441.109000", "143441.109000", "143441.109000", "143441.125000", "143441.125000", "143441.125000", "143501.078000", "143501.078000", "143501.078000", "143501.078000", "143501.078000", "143501.078000", "143501.093000", "143501.093000", "143501.093000", "143501.093000", "143501.093000", "143501.093000", "143501.109000", "143501.109000", "143501.109000", "143501.109000", "143501.109000", "143501.125000", "143501.125000", "143501.125000", "143521.078000", "143521.093000", "143521.109000", "143521.109000", "143521.125000", "143521.140000", "143521.140000", "143521.140000", "143521.140000", "143521.156000", "143521.156000", "143521.156000", "143521.156000", "143521.156000", "143521.156000", "143521.171000", "143521.171000", "143521.171000", "143521.171000", "143521.171000", "143541.078000", "143541.093000", "143541.093000", "143541.093000", "143541.093000", "143541.093000", "143541.109000", "143541.109000", "143541.109000", "143541.109000", "143541.109000", "143541.109000", "143541.109000", "143541.125000", "143541.125000", "143541.125000", "143541.125000", "143541.125000", "143541.125000", "143541.125000", "143601.078000", "143601.078000", "143601.093000", "143601.093000", "143601.093000", "143601.093000", "143601.093000", "143601.093000", "143601.093000", "143601.093000", "143601.109000", "143601.109000", "143601.109000", "143601.109000", "143601.125000", "143601.125000", "143601.125000", "143601.140000", "143601.140000", "143601.156000", "143621.078000", "143621.078000", "143621.078000", "143621.078000", "143621.078000", "143621.078000", "143621.093000", "143621.093000", "143621.093000", "143621.093000", "143621.093000", "143621.093000", "143621.093000", "143621.109000", "143621.109000", "143621.109000", "143621.109000", "143621.109000", "143621.109000", "143621.109000", "143641.078000", "143641.078000", "143641.093000", "143641.109000", "143641.109000", "143641.125000", "143641.140000", "143641.156000", "143641.156000", "143641.156000", "143641.171000", "143641.187000", "143641.187000", "143641.187000", "143641.187000", "143641.203000", "143641.203000", "143641.203000", "143641.218000", "143641.218000", "143701.078000", "143701.078000", "143701.078000", "143701.078000", "143701.078000", "143701.078000", "143701.093000", "143701.093000", "143701.093000", "143701.093000", "143701.093000", "143701.093000", "143701.109000", "143701.109000", "143701.109000", "143701.109000", "143701.109000", "143701.125000", "143701.125000", "143701.125000", "143721.078000", "143721.078000", "143721.078000", "143721.093000", "143721.093000", "143721.093000", "143721.109000", "143721.125000", "143721.125000", "143721.125000", "143721.125000", "143721.140000", "143721.140000", "143721.140000", "143721.140000", "143721.156000", "143721.156000", "143721.156000", "143721.156000", "143721.156000", "143741.078000", "143741.078000", "143741.093000", "143741.093000", "143741.093000", "143741.093000", "143741.093000", "143741.093000", "143741.093000", "143741.109000", "143741.109000", "143741.109000", "143741.109000", "143741.109000", "143741.109000", "143741.109000", "143741.125000", "143741.125000", "143741.125000", "143741.125000", "143801.078000", "143801.078000", "143801.078000", "143801.078000", "143801.078000", "143801.078000", "143801.093000", "143801.093000", "143801.093000", "143801.093000", "143801.093000", "143801.093000", "143801.093000", "143801.093000", "143801.109000", "143801.109000", "143801.109000", "143801.109000", "143801.109000", "143801.109000", "143821.078000", "143821.078000", "143821.078000", "143821.078000", "143821.078000", "143821.078000", "143821.093000", "143821.093000", "143821.093000", "143821.093000", "143821.093000", "143821.093000", "143821.093000", "143821.109000", "143821.109000", "143821.109000", "143821.109000", "143821.109000", "143821.109000", "143821.109000", "143841.078000", "143841.078000", "143841.078000", "143841.078000", "143841.078000", "143841.093000", "143841.093000", "143841.093000", "143841.093000", "143841.093000", "143841.093000", "143841.093000", "143841.109000", "143841.109000", "143841.109000", "143841.109000", "143841.109000", "143841.125000", "143841.125000", "143841.125000", "143901.078000", "143901.093000", "143901.093000", "143901.093000", "143901.093000", "143901.093000", "143901.093000", "143901.093000", "143901.109000", "143901.109000", "143901.109000", "143901.109000", "143901.109000", "143901.109000", "143901.125000", "143901.125000", "143901.125000", "143901.140000", "143901.140000", "143901.140000", "143923.078000", "143923.078000", "143923.078000", "143923.093000", "143923.093000", "143923.093000", "143923.093000", "143923.109000", "143923.109000", "143923.109000", "143923.109000", "143923.109000", "143923.109000", "143923.109000", "143923.109000", "143923.125000", "143923.125000", "143923.125000"],
      "InstanceNumber": [1, 2, 3, 4, 5, 6, 7, 8, 9, 10, 11, 12, 13, 14, 15, 16, 17, 18, 19, 20, 21, 22, 23, 24, 25, 26, 27, 28, 29, 30, 31, 32, 33, 34, 35, 36, 37, 38, 39, 40, 41, 42, 43, 44, 45, 46, 47, 48, 49, 50, 51, 52, 53, 54, 55, 56, 57, 58, 59, 60, 61, 62, 63, 64, 65, 66, 67, 68, 69, 70, 71, 72, 73, 74, 75, 76, 77, 78, 79, 80, 81, 82, 83, 84, 85, 86, 87, 88, 89, 90, 91, 92, 93, 94, 95, 96, 97, 98, 99, 100, 101, 102, 103, 104, 105, 106, 107, 108, 109, 110, 111, 112, 113, 114, 115, 116, 117, 118, 119, 120, 121, 122, 123, 124, 125, 126, 127, 128, 129, 130, 131, 132, 133, 134, 135, 136, 137, 138, 139, 140, 141, 142, 143, 144, 145, 146, 147, 148, 149, 150, 151, 152, 153, 154, 155, 156, 157, 158, 159, 160, 161, 162, 163, 164, 165, 166, 167, 168, 169, 170, 171, 172, 173, 174, 175, 176, 177, 178, 179, 180, 181, 182, 183, 184, 185, 186, 187, 188, 189, 190, 191, 192, 193, 194, 195, 196, 197, 198, 199, 200, 201, 202, 203, 204, 205, 206, 207, 208, 209, 210, 211, 212, 213, 214, 215, 216, 217, 218, 219, 220, 221, 222, 223, 224, 225, 226, 227, 228, 229, 230, 231, 232, 233, 234, 235, 236, 237, 238, 239, 240, 241, 242, 243, 244, 245, 246, 247, 248, 249, 250, 251, 252, 253, 254, 255, 256, 257, 258, 259, 260, 261, 262, 263, 264, 265, 266, 267, 268, 269, 270, 271, 272, 273, 274, 275, 276, 277, 278, 279, 280, 281, 282, 283, 284, 285, 286, 287, 288, 289, 290, 291, 292, 293, 294, 295, 296, 297, 298, 299, 300, 301, 302, 303, 304, 305, 306, 307, 308, 309, 310, 311, 312, 313, 314, 315, 316, 317, 318, 319, 320, 321, 322, 323, 324, 325, 326, 327, 328, 329, 330],
      "LargestImagePixelValue": [2576, 2588, 2563, 2552, 2570, 2524, 2523, 2559, 2549, 2542, 2532, 2508, 2554, 2551, 2531, 2579, 2522, 2575, 2527, 2537, 2532, 2536, 2535, 2518, 2544, 2525, 2503, 2506, 2543, 2481, 2515, 2523, 2564, 2527, 2510, 2493, 2468, 2488, 2477, 2489, 2482, 2490, 2523, 2500, 2509, 2481, 2488, 2483, 2488, 2521, 2536, 2478, 2486, 2504, 2496, 2471, 2492, 2456, 2461, 2459, 2537, 2507, 2482, 2525, 2498, 2532, 2447, 2493, 2448, 2517, 2514, 2435, 2492, 2498, 2480, 2485, 2474, 2487, 2498, 2509, 2502, 2484, 2468, 2495, 2453, 2495, 2467, 2471, 2493, 2498, 2458, 2477, 2476, 2490, 2482, 2500, 2484, 2509, 2492, 2536, 2511, 2448, 2507, 2466, 2486, 2518, 2533, 2490, 2508, 2507, 2468, 2487, 2494, 2472, 2494, 2475, 2450, 2489, 2527, 2494, 2485, 2483, 2488, 2473, 2489, 2511, 2490, 2496, 2495, 2503, 2483, 2472, 2507, 2503, 2513, 2502, 2532, 2546, 2488, 2533, 2600, 2529, 2571, 2604, 2589, 2621, 2513, 2526, 2572, 2600, 2560, 2538, 2560, 2527, 2563, 2526, 2556, 2576, 2559, 2557, 2509, 2567, 2532, 2568, 2566, 2564, 2547, 2564, 2575, 2507, 2527, 2548, 2535, 2554, 2511, 2526, 2570, 2606, 2582, 2567, 2559, 2554, 2561, 2564, 2552, 2552, 2590, 2525, 2567, 2676, 2642, 2661, 2679, 2612, 2608, 2592, 2546, 2557, 2543, 2564, 2579, 2573, 2578, 2566, 2584, 2569, 2573, 2579, 2567, 2610, 2567, 2535, 2542, 2609, 2568, 2564, 2534, 2550, 2624, 2585, 2634, 2581, 2584, 2632, 2570, 2544, 2577, 2591, 2539, 2542, 2518, 2568, 2524, 2581, 2523, 2554, 2537, 2514, 2535, 2514, 2563, 2505, 2544, 2569, 2521, 2568, 2525, 2549, 2568, 2504, 2518, 2496, 2545, 2508, 2536, 2529, 2532, 2491, 2545, 2539, 2534, 2514, 2560, 2532, 2542, 2541, 2557, 2534, 2540, 2552, 2533, 2517, 2536, 2527, 2531, 2515, 2550, 2541, 2556, 2499, 2519, 2555, 2539, 2531, 2525, 2508, 2518, 2502, 2541, 2525, 2513, 2524, 2505, 2520, 2514, 2527, 2539, 2540, 2494, 2495, 2517, 2476, 2504, 2488, 2500, 2606, 2551, 2542, 2543, 2553, 2514, 2544, 2535, 2524, 2543, 2567, 2525, 2520, 2547, 2512, 2523, 2569, 2553, 2528, 2559, 2556, 2540, 2540, 2544, 2543],
      "WindowCenter": [426.0, 426.0, 425.0, 426.0, 426.0, 426.0, 426.0, 426.0, 427.0, 428.0, 426.0, 426.0, 425.0, 425.0, 425.0, 426.0, 426.0, 427.0, 426.0, 426.0, 425.0, 426.0, 428.0, 428.0, 429.0, 428.0, 429.0, 428.0, 428.0, 428.0, 427.0, 427.0, 426.0, 425.0, 426.0, 425.0, 425.0, 425.0, 425.0, 425.0, 425.0, 425.0, 425.0, 424.0, 424.0, 424.0, 425.0, 426.0, 425.0, 425.0, 425.0, 425.0, 425.0, 425.0, 425.0, 425.0, 425.0, 425.0, 425.0, 425.0, 425.0, 425.0, 425.0, 425.0, 425.0, 425.0, 424.0, 424.0, 424.0, 425.0, 424.0, 423.0, 424.0, 424.0, 424.0, 425.0, 425.0, 425.0, 426.0, 426.0, 427.0, 427.0, 427.0, 427.0, 426.0, 427.0, 425.0, 425.0, 425.0, 424.0, 423.0, 423.0, 423.0, 424.0, 424.0, 424.0, 424.0, 424.0, 424.0, 425.0, 425.0, 425.0, 425.0, 426.0, 425.0, 425.0, 425.0, 425.0, 425.0, 425.0, 425.0, 426.0, 427.0, 426.0, 426.0, 426.0, 427.0, 426.0, 426.0, 426.0, 425.0, 424.0, 424.0, 424.0, 424.0, 424.0, 425.0, 426.0, 426.0, 427.0, 426.0, 425.0, 425.0, 425.0, 426.0, 425.0, 426.0, 426.0, 426.0, 427.0, 427.0, 426.0, 428.0, 428.0, 427.0, 427.0, 426.0, 426.0, 426.0, 428.0, 427.0, 428.0, 427.0, 428.0, 428.0, 428.0, 427.0, 427.0, 426.0, 426.0, 426.0, 426.0, 427.0, 427.0, 427.0, 427.0, 426.0, 426.0, 426.0, 426.0, 426.0, 426.0, 426.0, 426.0, 427.0, 426.0, 426.0, 425.0, 425.0, 426.0, 426.0, 426.0, 426.0, 426.0, 426.0, 426.0, 427.0, 426.0, 426.0, 427.0, 427.0, 428.0, 428.0, 427.0, 426.0, 425.0, 425.0, 425.0, 426.0, 427.0, 427.0, 428.0, 428.0, 428.0, 428.0, 428.0, 428.0, 428.0, 428.0, 429.0, 428.0, 427.0, 427.0, 428.0, 427.0, 427.0, 427.0, 427.0, 427.0, 426.0, 427.0, 428.0, 429.0, 430.0, 429.0, 428.0, 427.0, 427.0, 426.0, 426.0, 426.0, 427.0, 427.0, 428.0, 428.0, 429.0, 429.0, 428.0, 428.0, 427.0, 428.0, 428.0, 428.0, 428.0, 428.0, 428.0, 427.0, 427.0, 427.0, 426.0, 427.0, 427.0, 427.0, 427.0, 427.0, 425.0, 426.0, 426.0, 426.0, 426.0, 427.0, 426.0, 427.0, 426.0, 427.0, 427.0, 427.0, 427.0, 427.0, 427.0, 427.0, 427.0, 427.0, 427.0, 427.0, 427.0, 427.0, 428.0, 427.0, 426.0, 425.0, 426.0, 426.0, 426.0, 426.0, 426.0, 427.0, 427.0, 428.0, 427.0, 428.0, 427.0, 425.0, 425.0, 425.0, 426.0, 426.0, 427.0, 427.0, 427.0, 427.0, 426.0, 427.0, 426.0, 427.0, 428.0, 428.0, 427.0, 427.0, 427.0, 426.0, 426.0, 427.0, 428.0, 428.0, 428.0, 428.0, 428.0, 428.0, 428.0, 427.0, 428.0, 428.0, 428.0, 428.0, 428.0, 429.0, 428.0, 428.0, 428.0],
