{
  "AcquisitionMatrixPE": 104,
  "AcquisitionNumber": 1,
  "AcquisitionTime": "15:37:43.952500",
  "BandwidthPerPixelPhaseEncode": 43.054,
  "BaseResolution": 104,
  "CoilString": "C:E1_2",
  "ConversionSoftware": "dcm2niix",
  "ConversionSoftwareVersion": "v1.0.20191031",
  "DerivedVendorReportedEchoSpacing": 0.000669999,
  "DeviceSerialNumber": "18932",
  "DwellTime": 2.8e-06,
  "EchoTime": 0.02,
  "EffectiveEchoSpacing": 0.000223333,
  "FlipAngle": 30,
  "ImageComments": "Unaliased_MB2_PE2",
  "ImageOrientationPatientDICOM": [1, 0, 0, 0, 0.975535, -0.219846],
  "ImageType": [
    "ORIGINAL",
    "PRIMARY",
    "M",
    "MB",
    "ND",
    "MOSAIC"
],
  "ImagingFrequency": 297.229,
  "InPlanePhaseEncodingDirectionDICOM": "COL",
  "InstitutionAddress": "Richmond_Street_North_1151_London_409EF2_Ontario_CA_N6A_5B7",
  "InstitutionName": "Robarts_Reserch_Institute",
  "InstitutionalDepartmentName": "Department",
  "MRAcquisitionType": "2D",
  "MagneticFieldStrength": 6.98,
  "Manufacturer": "Siemens",
  "ManufacturersModelName": "Investigational_Device_7T",
  "Modality": "MR",
  "MultibandAccelerationFactor": 2,
  "ParallelReductionFactorInPlane": 3,
  "PartialFourier": 0.875,
  "PatientPosition": "HFS",
  "PercentPhaseFOV": 100,
  "PhaseEncodingDirection": "j-",
  "PhaseEncodingSteps": 91,
  "PhaseResolution": 1,
  "PixelBandwidth": 1717,
  "ProcedureStepDescription": "Diedrichsen_SeqRep4",
  "ProtocolName": "mbep2d_bold_mb2_p3_AP_2iso",
  "PulseSequenceDetails": "%CustomerSeq%_cmrr_mbep2d_bold",
  "ReceiveCoilName": "CFMM_8Tx32Rx",
  "ReconMatrixPE": 104,
  "RefLinesPE": 36,
  "RepetitionTime": 1,
  "ScanOptions": "PFP_FS",
  "ScanningSequence": "EP",
  "SequenceName": "epfid2d1_104",
  "SequenceVariant": "SK_SS",
  "SeriesDescription": "mbep2d_bold_mb2_p3_AP_2iso",
  "SeriesNumber": 32,
  "ShimSetting": [43, 2073, 130, 1348, 227, 18, 60, -240],
  "SliceThickness": 2,
  "SliceTiming": [0, 0.2275, 0.455, 0.685, 0.9125, 0.1375, 0.365, 0.5925, 0.82, 0.045, 0.2725, 0.5025, 0.73, 0.9575, 0.1825, 0.41, 0.6375, 0.8675, 0.09, 0.32, 0.5475, 0.775, 0, 0.2275, 0.455, 0.685, 0.9125, 0.1375, 0.365, 0.5925, 0.82, 0.045, 0.2725, 0.5025, 0.73, 0.9575, 0.1825, 0.41, 0.6375, 0.8675, 0.09, 0.32, 0.5475, 0.775],
  "SoftwareVersions": "syngo_MR_B17",
  "SpacingBetweenSlices": 2,
  "StationName": "MASTER",
  "TaskName": "dsp",
  "TotalReadoutTime": 0.0230033,
  "TxRefAmp": 120,
  "dcmmeta_affine": [
    [-2.0, 0.0, 0.0, 105.4527816772461],
    [0.0, 1.9510691165924072, -0.4396924078464508, -105.30754089355469],
    [0.0, 0.4396924078464508, 1.9510689973831177, -38.27162170410156],
    [0.0, 0.0, 0.0, 1.0]
],
  "dcmmeta_reorient_transform": [
    [0.0, -1.0, 0.0, 103.0],
    [1.0, 0.0, 0.0, 0.0],
    [0.0, 0.0, 1.0, 0.0],
    [0.0, 0.0, 0.0, 1.0]
],
  "dcmmeta_shape": [104, 104, 44, 330],
  "dcmmeta_slice_dim": 2,
  "dcmmeta_version": 0.6,
  "global": {
    "const": {
      "AcquisitionMatrix": [104, 0, 0, 104],
      "AngioFlag": "N",
      "BitsAllocated": 16,
      "BitsStored": 12,
      "Columns": 728,
      "EchoNumbers": 1,
      "EchoTime": 20.0,
      "EchoTrainLength": 1,
      "FlipAngle": 30.0,
      "HighBit": 11,
      "ImageOrientationPatient": [1.0, 0.0, 0.0, 0.0, 0.97553454431481, -0.2198462027157],
      "ImagePositionPatient": [-729.45278453827, -704.38612969124, 144.20072741813],
      "ImageType": [
        "ORIGINAL",
        "PRIMARY",
        "M",
        "MB",
        "ND",
        "MOSAIC"
],
      "ImagedNucleus": "1H",
      "ImagingFrequency": 297.228778,
      "InPlanePhaseEncodingDirection": "COL",
      "MRAcquisitionType": "2D",
      "MagneticFieldStrength": 6.98,
      "Manufacturer": "SIEMENS",
      "ManufacturerModelName": "Investigational_Device_7T",
      "Modality": "MR",
      "NumberOfAverages": 1.0,
      "NumberOfPhaseEncodingSteps": 91,
      "PercentPhaseFieldOfView": 100.0,
      "PercentSampling": 100.0,
      "PerformedProcedureStepStartTime": "141304.296000",
      "PhotometricInterpretation": "MONOCHROME2",
      "PixelBandwidth": 1717.0,
      "PixelRepresentation": 0,
      "PixelSpacing": [2.0, 2.0],
      "ProtocolName": "mbep2d_bold_mb2_p3_AP 2iso",
      "RepetitionTime": 1000.0,
      "Rows": 728,
      "SAR": 0.0,
      "SamplesPerPixel": 1,
      "ScanOptions": [
        "PFP",
        "FS"
],
      "ScanningSequence": "EP",
      "SequenceName": "epfid2d1_104",
      "SequenceVariant": [
        "SK",
        "SS"
],
      "SeriesDescription": "mbep2d_bold_mb2_p3_AP 2iso",
      "SeriesNumber": 32,
      "SeriesTime": "153806.062000",
      "SliceLocation": -14.183824946493,
      "SliceThickness": 2.0,
      "SmallestImagePixelValue": 0,
      "SoftwareVersions": "syngo MR B17",
      "SpacingBetweenSlices": 1.9999999517033,
      "SpecificCharacterSet": "ISO_IR 100",
      "StudyID": "1",
      "StudyTime": "141304.171000",
      "TransmitCoilName": "CFMM_8Tx32Rx",
      "VariableFlipAngleFlag": "N",
      "WindowCenterWidthExplanation": "Algo1",
      "dBdt": 0.0},
    "slices": {}
  },
  "time": {
    "samples": {
      "AcquisitionNumber": [1, 2, 3, 4, 5, 6, 7, 8, 9, 10, 11, 12, 13, 14, 15, 16, 17, 18, 19, 20, 21, 22, 23, 24, 25, 26, 27, 28, 29, 30, 31, 32, 33, 34, 35, 36, 37, 38, 39, 40, 41, 42, 43, 44, 45, 46, 47, 48, 49, 50, 51, 52, 53, 54, 55, 56, 57, 58, 59, 60, 61, 62, 63, 64, 65, 66, 67, 68, 69, 70, 71, 72, 73, 74, 75, 76, 77, 78, 79, 80, 81, 82, 83, 84, 85, 86, 87, 88, 89, 90, 91, 92, 93, 94, 95, 96, 97, 98, 99, 100, 101, 102, 103, 104, 105, 106, 107, 108, 109, 110, 111, 112, 113, 114, 115, 116, 117, 118, 119, 120, 121, 122, 123, 124, 125, 126, 127, 128, 129, 130, 131, 132, 133, 134, 135, 136, 137, 138, 139, 140, 141, 142, 143, 144, 145, 146, 147, 148, 149, 150, 151, 152, 153, 154, 155, 156, 157, 158, 159, 160, 161, 162, 163, 164, 165, 166, 167, 168, 169, 170, 171, 172, 173, 174, 175, 176, 177, 178, 179, 180, 181, 182, 183, 184, 185, 186, 187, 188, 189, 190, 191, 192, 193, 194, 195, 196, 197, 198, 199, 200, 201, 202, 203, 204, 205, 206, 207, 208, 209, 210, 211, 212, 213, 214, 215, 216, 217, 218, 219, 220, 221, 222, 223, 224, 225, 226, 227, 228, 229, 230, 231, 232, 233, 234, 235, 236, 237, 238, 239, 240, 241, 242, 243, 244, 245, 246, 247, 248, 249, 250, 251, 252, 253, 254, 255, 256, 257, 258, 259, 260, 261, 262, 263, 264, 265, 266, 267, 268, 269, 270, 271, 272, 273, 274, 275, 276, 277, 278, 279, 280, 281, 282, 283, 284, 285, 286, 287, 288, 289, 290, 291, 292, 293, 294, 295, 296, 297, 298, 299, 300, 301, 302, 303, 304, 305, 306, 307, 308, 309, 310, 311, 312, 313, 314, 315, 316, 317, 318, 319, 320, 321, 322, 323, 324, 325, 326, 327, 328, 329, 330],
      "AcquisitionTime": ["153743.952500", "153744.955000", "153745.960000", "153746.965000", "153747.967500", "153748.972500", "153749.975000", "153750.980000", "153751.985000", "153752.987500", "153753.992500", "153754.997500", "153756.000000", "153757.005000", "153758.007500", "153759.012500", "153800.017500", "153801.020000", "153802.025000", "153803.027500", "153804.032500", "153805.037500", "153806.040000", "153807.045000", "153808.047500", "153809.052500", "153810.057500", "153811.060000", "153812.065000", "153813.067500", "153814.072500", "153815.077500", "153816.080000", "153817.085000", "153818.087500", "153819.092500", "153820.097500", "153821.100000", "153822.105000", "153823.107500", "153824.112500", "153825.117500", "153826.120000", "153827.125000", "153828.130000", "153829.132500", "153830.137500", "153831.140000", "153832.145000", "153833.150000", "153834.152500", "153835.157500", "153836.160000", "153837.165000", "153838.170000", "153839.172500", "153840.177500", "153841.180000", "153842.185000", "153843.190000", "153844.192500", "153845.197500", "153846.200000", "153847.205000", "153848.210000", "153849.212500", "153850.217500", "153851.220000", "153852.225000", "153853.230000", "153854.232500", "153855.237500", "153856.242500", "153857.245000", "153858.250000", "153859.252500", "153900.257500", "153901.262500", "153902.265000", "153903.270000", "153904.272500", "153905.277500", "153906.282500", "153907.285000", "153908.290000", "153909.292500", "153910.297500", "153911.302500", "153912.305000", "153913.310000", "153914.312500", "153915.317500", "153916.322500", "153917.325000", "153918.330000", "153919.332500", "153920.337500", "153921.342500", "153922.345000", "153923.350000", "153924.352500", "153925.357500", "153926.362500", "153927.365000", "153928.370000", "153929.375000", "153930.377500", "153931.382500", "153932.385000", "153933.390000", "153934.395000", "153935.397500", "153936.402500", "153937.405000", "153938.410000", "153939.415000", "153940.417500", "153941.422500", "153942.425000", "153943.430000", "153944.435000", "153945.437500", "153946.442500", "153947.445000", "153948.450000", "153949.455000", "153950.457500", "153951.462500", "153952.465000", "153953.470000", "153954.475000", "153955.477500", "153956.482500", "153957.487500", "153958.490000", "153959.495000", "154000.497500", "154001.502500", "154002.507500", "154003.510000", "154004.515000", "154005.517500", "154006.522500", "154007.527500", "154008.530000", "154009.535000", "154010.537500", "154011.542500", "154012.547500", "154013.550000", "154014.555000", "154015.557500", "154016.562500", "154017.567500", "154018.570000", "154019.575000", "154020.577500", "154021.582500", "154022.587500", "154023.590000", "154024.595000", "154025.597500", "154026.602500", "154027.607500", "154028.610000", "154029.615000", "154030.620000", "154031.622500", "154032.627500", "154033.630000", "154034.635000", "154035.640000", "154036.642500", "154037.647500", "154038.650000", "154039.655000", "154040.660000", "154041.662500", "154042.667500", "154043.670000", "154044.675000", "154045.680000", "154046.682500", "154047.687500", "154048.690000", "154049.695000", "154050.700000", "154051.702500", "154052.707500", "154053.710000", "154054.715000", "154055.720000", "154056.722500", "154057.727500", "154058.730000", "154059.735000", "154100.740000", "154101.742500", "154102.747500", "154103.752500", "154104.755000", "154105.760000", "154106.762500", "154107.767500", "154108.772500", "154109.775000", "154110.780000", "154111.782500", "154112.787500", "154113.792500", "154114.795000", "154115.800000", "154116.802500", "154117.807500", "154118.812500", "154119.815000", "154120.820000", "154121.822500", "154122.827500", "154123.832500", "154124.835000", "154125.840000", "154126.842500", "154127.847500", "154128.852500", "154129.855000", "154130.860000", "154131.865000", "154132.867500", "154133.872500", "154134.875000", "154135.880000", "154136.885000", "154137.887500", "154138.892500", "154139.895000", "154140.900000", "154141.905000", "154142.907500", "154143.912500", "154144.915000", "154145.920000", "154146.925000", "154147.927500", "154148.932500", "154149.935000", "154150.940000", "154151.945000", "154152.947500", "154153.952500", "154154.955000", "154155.960000", "154156.965000", "154157.967500", "154158.972500", "154159.975000", "154200.980000", "154201.985000", "154202.987500", "154203.992500", "154204.997500", "154206.000000", "154207.005000", "154208.007500", "154209.012500", "154210.017500", "154211.020000", "154212.025000", "154213.027500", "154214.032500", "154215.037500", "154216.040000", "154217.045000", "154218.047500", "154219.052500", "154220.057500", "154221.060000", "154222.065000", "154223.067500", "154224.072500", "154225.077500", "154226.080000", "154227.085000", "154228.087500", "154229.092500", "154230.097500", "154231.100000", "154232.105000", "154233.107500", "154234.112500", "154235.117500", "154236.120000", "154237.125000", "154238.130000", "154239.132500", "154240.137500", "154241.140000", "154242.145000", "154243.150000", "154244.152500", "154245.157500", "154246.160000", "154247.165000", "154248.170000", "154249.172500", "154250.177500", "154251.180000", "154252.185000", "154253.190000", "154254.192500", "154255.197500", "154256.200000", "154257.205000", "154258.210000", "154259.212500", "154300.217500", "154301.220000", "154302.225000", "154303.230000", "154304.232500", "154305.237500", "154306.242500", "154307.245000", "154308.250000", "154309.252500", "154310.257500", "154311.262500", "154312.265000", "154313.270000", "154314.272500"],
      "ContentTime": ["153806.062000", "153806.062000", "153806.062000", "153806.062000", "153806.078000", "153806.078000", "153806.078000", "153806.078000", "153806.078000", "153806.078000", "153806.078000", "153806.078000", "153806.093000", "153806.093000", "153806.093000", "153806.093000", "153806.093000", "153806.093000", "153806.093000", "153806.109000", "153806.109000", "153826.015000", "153826.015000", "153826.015000", "153826.015000", "153826.015000", "153826.015000", "153826.031000", "153826.031000", "153826.031000", "153826.031000", "153826.031000", "153826.031000", "153826.031000", "153826.046000", "153826.046000", "153826.046000", "153826.046000", "153826.046000", "153826.046000", "153826.046000", "153846.015000", "153846.015000", "153846.015000", "153846.015000", "153846.015000", "153846.015000", "153846.031000", "153846.031000", "153846.031000", "153846.031000", "153846.031000", "153846.031000", "153846.031000", "153846.046000", "153846.046000", "153846.046000", "153846.046000", "153846.046000", "153846.046000", "153846.046000", "153906.015000", "153906.015000", "153906.015000", "153906.015000", "153906.015000", "153906.015000", "153906.031000", "153906.031000", "153906.031000", "153906.031000", "153906.031000", "153906.031000", "153906.031000", "153906.046000", "153906.046000", "153906.046000", "153906.046000", "153906.062000", "153906.062000", "153906.062000", "153926.015000", "153926.015000", "153926.015000", "153926.015000", "153926.031000", "153926.031000", "153926.031000", "153926.031000", "153926.031000", "153926.031000", "153926.046000", "153926.046000", "153926.046000", "153926.046000", "153926.046000", "153926.046000", "153926.046000", "153926.062000", "153926.062000", "153926.062000", "153946.015000", "153946.015000", "153946.015000", "153946.015000", "153946.015000", "153946.015000", "153946.031000", "153946.031000", "153946.031000", "153946.031000", "153946.031000", "153946.031000", "153946.031000", "153946.046000", "153946.046000", "153946.046000", "153946.046000", "153946.046000", "153946.046000", "153946.062000", "154006.015000", "154006.015000", "154006.015000", "154006.015000", "154006.015000", "154006.015000", "154006.031000", "154006.031000", "154006.031000", "154006.031000", "154006.046000", "154006.046000", "154006.046000", "154006.046000", "154006.046000", "154006.046000", "154006.046000", "154006.062000", "154006.062000", "154006.062000", "154026.015000", "154026.015000", "154026.015000", "154026.015000", "154026.015000", "154026.015000", "154026.031000", "154026.031000", "154026.031000", "154026.031000", "154026.031000", "154026.046000", "154026.046000", "154026.046000", "154026.046000", "154026.046000", "154026.046000", "154026.046000", "154026.062000", "154026.062000", "154046.015000", "154046.015000", "154046.015000", "154046.015000", "154046.031000", "154046.031000", "154046.031000", "154046.031000", "154046.031000", "154046.031000", "154046.046000", "154046.046000", "154046.046000", "154046.046000", "154046.046000", "154046.046000", "154046.062000", "154046.062000", "154046.062000", "154046.062000", "154106.015000", "154106.015000", "154106.015000", "154106.015000", "154106.015000", "154106.015000", "154106.031000", "154106.031000", "154106.031000", "154106.031000", "154106.031000", "154106.031000", "154106.031000", "154106.046000", "154106.046000", "154106.046000", "154106.046000", "154106.046000", "154106.046000", "154106.046000", "154126.015000", "154126.015000", "154126.015000", "154126.031000", "154126.031000", "154126.031000", "154126.031000", "154126.031000", "154126.031000", "154126.031000", "154126.046000", "154126.046000", "154126.046000", "154126.046000", "154126.046000", "154126.046000", "154126.046000", "154126.046000", "154126.062000", "154126.062000", "154146.015000", "154146.015000", "154146.015000", "154146.015000", "154146.015000", "154146.031000", "154146.031000", "154146.031000", "154146.031000", "154146.031000", "154146.046000", "154146.046000", "154146.046000", "154146.046000", "154146.046000", "154146.046000", "154146.046000", "154146.062000", "154146.062000", "154146.062000", "154206.015000", "154206.015000", "154206.015000", "154206.015000", "154206.015000", "154206.015000", "154206.031000", "154206.031000", "154206.031000", "154206.031000", "154206.031000", "154206.046000", "154206.046000", "154206.046000", "154206.046000", "154206.046000", "154206.046000", "154206.046000", "154206.046000", "154206.062000", "154226.015000", "154226.015000", "154226.015000", "154226.015000", "154226.031000", "154226.031000", "154226.031000", "154226.031000", "154226.031000", "154226.031000", "154226.031000", "154226.046000", "154226.046000", "154226.046000", "154226.046000", "154226.046000", "154226.046000", "154226.046000", "154226.062000", "154226.062000", "154246.015000", "154246.015000", "154246.015000", "154246.015000", "154246.015000", "154246.015000", "154246.031000", "154246.031000", "154246.031000", "154246.031000", "154246.031000", "154246.031000", "154246.046000", "154246.046000", "154246.046000", "154246.046000", "154246.046000", "154246.046000", "154246.046000", "154246.062000", "154306.015000", "154306.015000", "154306.015000", "154306.015000", "154306.015000", "154306.015000", "154306.031000", "154306.031000", "154306.031000", "154306.031000", "154306.031000", "154306.046000", "154306.046000", "154306.046000", "154306.046000", "154306.046000", "154306.046000", "154306.046000", "154306.062000", "154306.062000", "154319.937000", "154319.937000", "154319.937000", "154319.937000", "154319.937000", "154319.953000", "154319.953000", "154319.953000", "154319.953000"],
      "InstanceCreationTime": ["153806.062000", "153806.062000", "153806.062000", "153806.062000", "153806.078000", "153806.078000", "153806.078000", "153806.078000", "153806.078000", "153806.078000", "153806.078000", "153806.078000", "153806.093000", "153806.093000", "153806.093000", "153806.093000", "153806.093000", "153806.093000", "153806.093000", "153806.109000", "153806.109000", "153826.015000", "153826.015000", "153826.015000", "153826.015000", "153826.015000", "153826.015000", "153826.031000", "153826.031000", "153826.031000", "153826.031000", "153826.031000", "153826.031000", "153826.031000", "153826.046000", "153826.046000", "153826.046000", "153826.046000", "153826.046000", "153826.046000", "153826.046000", "153846.015000", "153846.015000", "153846.015000", "153846.015000", "153846.015000", "153846.015000", "153846.031000", "153846.031000", "153846.031000", "153846.031000", "153846.031000", "153846.031000", "153846.031000", "153846.046000", "153846.046000", "153846.046000", "153846.046000", "153846.046000", "153846.046000", "153846.046000", "153906.015000", "153906.015000", "153906.015000", "153906.015000", "153906.015000", "153906.015000", "153906.031000", "153906.031000", "153906.031000", "153906.031000", "153906.031000", "153906.031000", "153906.031000", "153906.046000", "153906.046000", "153906.046000", "153906.046000", "153906.062000", "153906.062000", "153906.062000", "153926.015000", "153926.015000", "153926.015000", "153926.015000", "153926.031000", "153926.031000", "153926.031000", "153926.031000", "153926.031000", "153926.031000", "153926.046000", "153926.046000", "153926.046000", "153926.046000", "153926.046000", "153926.046000", "153926.046000", "153926.062000", "153926.062000", "153926.062000", "153946.015000", "153946.015000", "153946.015000", "153946.015000", "153946.015000", "153946.015000", "153946.031000", "153946.031000", "153946.031000", "153946.031000", "153946.031000", "153946.031000", "153946.031000", "153946.046000", "153946.046000", "153946.046000", "153946.046000", "153946.046000", "153946.046000", "153946.062000", "154006.015000", "154006.015000", "154006.015000", "154006.015000", "154006.015000", "154006.015000", "154006.031000", "154006.031000", "154006.031000", "154006.031000", "154006.046000", "154006.046000", "154006.046000", "154006.046000", "154006.046000", "154006.046000", "154006.046000", "154006.062000", "154006.062000", "154006.062000", "154026.015000", "154026.015000", "154026.015000", "154026.015000", "154026.015000", "154026.015000", "154026.031000", "154026.031000", "154026.031000", "154026.031000", "154026.031000", "154026.046000", "154026.046000", "154026.046000", "154026.046000", "154026.046000", "154026.046000", "154026.046000", "154026.062000", "154026.062000", "154046.015000", "154046.015000", "154046.015000", "154046.015000", "154046.031000", "154046.031000", "154046.031000", "154046.031000", "154046.031000", "154046.031000", "154046.046000", "154046.046000", "154046.046000", "154046.046000", "154046.046000", "154046.046000", "154046.062000", "154046.062000", "154046.062000", "154046.062000", "154106.015000", "154106.015000", "154106.015000", "154106.015000", "154106.015000", "154106.015000", "154106.031000", "154106.031000", "154106.031000", "154106.031000", "154106.031000", "154106.031000", "154106.031000", "154106.046000", "154106.046000", "154106.046000", "154106.046000", "154106.046000", "154106.046000", "154106.046000", "154126.015000", "154126.015000", "154126.015000", "154126.031000", "154126.031000", "154126.031000", "154126.031000", "154126.031000", "154126.031000", "154126.031000", "154126.046000", "154126.046000", "154126.046000", "154126.046000", "154126.046000", "154126.046000", "154126.046000", "154126.046000", "154126.062000", "154126.062000", "154146.015000", "154146.015000", "154146.015000", "154146.015000", "154146.015000", "154146.031000", "154146.031000", "154146.031000", "154146.031000", "154146.031000", "154146.046000", "154146.046000", "154146.046000", "154146.046000", "154146.046000", "154146.046000", "154146.046000", "154146.062000", "154146.062000", "154146.062000", "154206.015000", "154206.015000", "154206.015000", "154206.015000", "154206.015000", "154206.015000", "154206.031000", "154206.031000", "154206.031000", "154206.031000", "154206.031000", "154206.046000", "154206.046000", "154206.046000", "154206.046000", "154206.046000", "154206.046000", "154206.046000", "154206.046000", "154206.062000", "154226.015000", "154226.015000", "154226.015000", "154226.015000", "154226.031000", "154226.031000", "154226.031000", "154226.031000", "154226.031000", "154226.031000", "154226.031000", "154226.046000", "154226.046000", "154226.046000", "154226.046000", "154226.046000", "154226.046000", "154226.046000", "154226.062000", "154226.062000", "154246.015000", "154246.015000", "154246.015000", "154246.015000", "154246.015000", "154246.015000", "154246.031000", "154246.031000", "154246.031000", "154246.031000", "154246.031000", "154246.031000", "154246.046000", "154246.046000", "154246.046000", "154246.046000", "154246.046000", "154246.046000", "154246.046000", "154246.062000", "154306.015000", "154306.015000", "154306.015000", "154306.015000", "154306.015000", "154306.015000", "154306.031000", "154306.031000", "154306.031000", "154306.031000", "154306.031000", "154306.046000", "154306.046000", "154306.046000", "154306.046000", "154306.046000", "154306.046000", "154306.046000", "154306.062000", "154306.062000", "154319.937000", "154319.937000", "154319.937000", "154319.937000", "154319.937000", "154319.953000", "154319.953000", "154319.953000", "154319.953000"],
      "InstanceNumber": [1, 2, 3, 4, 5, 6, 7, 8, 9, 10, 11, 12, 13, 14, 15, 16, 17, 18, 19, 20, 21, 22, 23, 24, 25, 26, 27, 28, 29, 30, 31, 32, 33, 34, 35, 36, 37, 38, 39, 40, 41, 42, 43, 44, 45, 46, 47, 48, 49, 50, 51, 52, 53, 54, 55, 56, 57, 58, 59, 60, 61, 62, 63, 64, 65, 66, 67, 68, 69, 70, 71, 72, 73, 74, 75, 76, 77, 78, 79, 80, 81, 82, 83, 84, 85, 86, 87, 88, 89, 90, 91, 92, 93, 94, 95, 96, 97, 98, 99, 100, 101, 102, 103, 104, 105, 106, 107, 108, 109, 110, 111, 112, 113, 114, 115, 116, 117, 118, 119, 120, 121, 122, 123, 124, 125, 126, 127, 128, 129, 130, 131, 132, 133, 134, 135, 136, 137, 138, 139, 140, 141, 142, 143, 144, 145, 146, 147, 148, 149, 150, 151, 152, 153, 154, 155, 156, 157, 158, 159, 160, 161, 162, 163, 164, 165, 166, 167, 168, 169, 170, 171, 172, 173, 174, 175, 176, 177, 178, 179, 180, 181, 182, 183, 184, 185, 186, 187, 188, 189, 190, 191, 192, 193, 194, 195, 196, 197, 198, 199, 200, 201, 202, 203, 204, 205, 206, 207, 208, 209, 210, 211, 212, 213, 214, 215, 216, 217, 218, 219, 220, 221, 222, 223, 224, 225, 226, 227, 228, 229, 230, 231, 232, 233, 234, 235, 236, 237, 238, 239, 240, 241, 242, 243, 244, 245, 246, 247, 248, 249, 250, 251, 252, 253, 254, 255, 256, 257, 258, 259, 260, 261, 262, 263, 264, 265, 266, 267, 268, 269, 270, 271, 272, 273, 274, 275, 276, 277, 278, 279, 280, 281, 282, 283, 284, 285, 286, 287, 288, 289, 290, 291, 292, 293, 294, 295, 296, 297, 298, 299, 300, 301, 302, 303, 304, 305, 306, 307, 308, 309, 310, 311, 312, 313, 314, 315, 316, 317, 318, 319, 320, 321, 322, 323, 324, 325, 326, 327, 328, 329, 330],
      "LargestImagePixelValue": [1989, 1977, 2025, 2049, 2076, 2016, 1958, 1935, 1958, 2029, 1934, 2011, 1972, 1956, 2021, 2033, 1975, 2072, 1987, 2019, 1991, 1978, 1997, 2008, 2044, 2004, 2035, 2023, 2000, 2023, 2006, 2014, 1986, 1981, 1982, 1984, 1961, 1928, 2002, 2042, 1986, 2079, 1944, 1990, 1962, 1939, 1975, 1953, 1971, 1975, 1976, 1944, 1941, 1977, 1979, 1928, 1945, 1932, 2028, 1996, 2026, 1953, 2043, 1995, 1983, 2017, 1936, 1949, 1941, 1984, 1945, 1950, 2064, 1976, 2032, 1988, 2010, 1988, 1967, 2119, 2042, 1952, 1954, 1960, 1985, 2010, 2004, 1974, 1993, 2007, 1985, 1957, 2004, 2004, 2048, 1977, 1998, 1933, 1995, 1992, 1916, 2070, 2004, 1995, 2023, 1997, 1982, 1987, 1911, 2012, 2015, 2070, 1994, 2003, 1981, 1953, 1952, 1995, 2063, 1954, 1948, 2032, 1946, 2002, 2082, 2028, 1960, 2056, 1998, 2074, 2013, 2006, 2017, 1910, 1954, 2036, 2067, 2027, 2048, 1950, 1916, 1934, 2019, 2097, 1956, 1976, 2099, 2076, 2029, 2097, 2006, 1974, 1937, 2023, 1976, 1918, 1963, 1982, 2044, 1937, 1959, 1950, 1956, 1977, 2003, 1953, 1971, 1956, 1961, 1985, 1959, 2037, 1985, 2009, 2000, 2032, 2013, 2005, 1984, 2028, 1992, 2075, 2013, 1998, 2011, 2090, 2058, 2080, 2018, 2092, 2061, 2141, 2044, 2064, 2204, 2060, 2133, 2056, 2179, 2039, 2157, 2086, 2153, 2060, 2200, 2252, 2082, 2091, 2118, 2075, 2146, 2071, 2088, 2126, 2177, 2123, 2131, 2158, 2098, 2167, 2070, 2090, 2217, 2112, 2202, 2099, 2109, 2058, 2122, 2124, 2091, 2149, 2143, 2104, 2169, 2152, 2317, 2212, 2144, 2298, 2263, 2111, 2089, 2148, 2153, 2144, 2109, 2120, 2199, 2231, 2093, 2216, 2206, 2085, 2180, 2124, 2178, 2093, 2213, 2222, 2187, 2165, 2170, 2172, 2178, 2164, 2216, 2161, 2149, 2138, 2253, 2141, 2225, 2196, 2111, 2142, 2153, 2217, 2178, 2098, 2211, 2126, 2150, 2354, 2141, 2185, 2217, 2146, 2174, 2262, 2091, 2232, 2256, 2213, 2131, 2090, 2130, 2123, 2148, 2169, 2188, 2151, 2028, 2159, 2091, 2108, 2117, 2157, 2155, 2188, 2213, 2172, 2165, 2123, 2193, 2133, 2200, 2188, 2241, 2132, 2114, 2135, 2158, 2157, 2189, 2222, 2068, 2114, 2165, 2218],
      "WindowCenter": [404.0, 403.0, 404.0, 405.0, 406.0, 404.0, 402.0, 402.0, 402.0, 403.0, 404.0, 404.0, 404.0, 405.0, 406.0, 406.0, 405.0, 407.0, 405.0, 405.0, 404.0, 405.0, 405.0, 405.0, 406.0, 406.0, 408.0, 407.0, 407.0, 408.0, 407.0, 407.0, 407.0, 407.0, 406.0, 406.0, 406.0, 405.0, 406.0, 408.0, 407.0, 408.0, 406.0, 409.0, 408.0, 406.0, 406.0, 405.0, 406.0, 406.0, 406.0, 404.0, 404.0, 404.0, 404.0, 404.0, 405.0, 405.0, 405.0, 405.0, 406.0, 405.0, 408.0, 406.0, 406.0, 408.0, 407.0, 406.0, 406.0, 407.0, 404.0, 403.0, 406.0, 407.0, 407.0, 406.0, 407.0, 405.0, 404.0, 406.0, 405.0, 402.0, 403.0, 404.0, 405.0, 406.0, 406.0, 405.0, 405.0, 403.0, 403.0, 404.0, 405.0, 405.0, 406.0, 406.0, 406.0, 406.0, 406.0, 406.0, 405.0, 407.0, 406.0, 406.0, 407.0, 407.0, 406.0, 406.0, 404.0, 405.0, 405.0, 406.0, 405.0, 405.0, 405.0, 405.0, 405.0, 406.0, 407.0, 405.0, 405.0, 407.0, 406.0, 406.0, 409.0, 408.0, 405.0, 407.0, 406.0, 406.0, 405.0, 405.0, 406.0, 405.0, 405.0, 406.0, 407.0, 406.0, 406.0, 405.0, 404.0, 404.0, 405.0, 406.0, 404.0, 404.0, 405.0, 405.0, 404.0, 407.0, 405.0, 405.0, 405.0, 406.0, 406.0, 405.0, 405.0, 406.0, 406.0, 404.0, 404.0, 403.0, 403.0, 403.0, 404.0, 404.0, 404.0, 403.0, 403.0, 403.0, 403.0, 404.0, 404.0, 404.0, 404.0, 405.0, 405.0, 405.0, 403.0, 402.0, 402.0, 404.0, 403.0, 403.0, 404.0, 405.0, 404.0, 404.0, 403.0, 403.0, 402.0, 403.0, 403.0, 403.0, 406.0, 405.0, 406.0, 404.0, 406.0, 405.0, 407.0, 404.0, 407.0, 406.0, 406.0, 406.0, 403.0, 403.0, 403.0, 402.0, 402.0, 402.0, 402.0, 403.0, 405.0, 404.0, 404.0, 404.0, 404.0, 404.0, 403.0, 404.0, 406.0, 404.0, 405.0, 404.0, 404.0, 404.0, 405.0, 405.0, 405.0, 405.0, 405.0, 405.0, 406.0, 405.0, 407.0, 405.0, 405.0, 406.0, 405.0, 405.0, 405.0, 405.0, 405.0, 405.0, 404.0, 404.0, 404.0, 405.0, 404.0, 405.0, 405.0, 404.0, 404.0, 404.0, 406.0, 404.0, 405.0, 405.0, 404.0, 403.0, 403.0, 403.0, 403.0, 403.0, 404.0, 404.0, 404.0, 404.0, 406.0, 404.0, 405.0, 405.0, 404.0, 404.0, 405.0, 405.0, 404.0, 403.0, 404.0, 402.0, 403.0, 406.0, 403.0, 403.0, 403.0, 403.0, 405.0, 405.0, 403.0, 404.0, 404.0, 404.0, 403.0, 403.0, 404.0, 403.0, 403.0, 403.0, 403.0, 404.0, 403.0, 405.0, 405.0, 406.0, 405.0, 405.0, 405.0, 406.0, 405.0, 404.0, 404.0, 403.0, 405.0, 404.0, 405.0, 405.0, 406.0, 405.0, 405.0, 403.0, 404.0, 405.0, 405.0, 406.0, 403.0, 403.0, 404.0, 406.0],
