{
  "AcquisitionMatrixPE": 104,
  "AcquisitionNumber": 1,
  "AcquisitionTime": "15:00:36.190000",
  "BandwidthPerPixelPhaseEncode": 43.054,
  "BaseResolution": 104,
  "CoilString": "C:E1_2",
  "ConversionSoftware": "dcm2niix",
  "ConversionSoftwareVersion": "v1.0.20191031",
  "DerivedVendorReportedEchoSpacing": 0.000669999,
  "DeviceSerialNumber": "18932",
  "DwellTime": 2.8e-06,
  "EchoTime": 0.02,
  "EffectiveEchoSpacing": 0.000223333,
  "FlipAngle": 30,
  "ImageComments": "Unaliased_MB2_PE2",
  "ImageOrientationPatientDICOM": [1, 0, 0, 0, 0.975535, -0.219846],
  "ImageType": [
    "ORIGINAL",
    "PRIMARY",
    "M",
    "MB",
    "ND",
    "MOSAIC"
],
  "ImagingFrequency": 297.229,
  "InPlanePhaseEncodingDirectionDICOM": "COL",
  "InstitutionAddress": "Richmond_Street_North_1151_London_409EF2_Ontario_CA_N6A_5B7",
  "InstitutionName": "Robarts_Reserch_Institute",
  "InstitutionalDepartmentName": "Department",
  "MRAcquisitionType": "2D",
  "MagneticFieldStrength": 6.98,
  "Manufacturer": "Siemens",
  "ManufacturersModelName": "Investigational_Device_7T",
  "Modality": "MR",
  "MultibandAccelerationFactor": 2,
  "ParallelReductionFactorInPlane": 3,
  "PartialFourier": 0.875,
  "PatientPosition": "HFS",
  "PercentPhaseFOV": 100,
  "PhaseEncodingDirection": "j-",
  "PhaseEncodingSteps": 91,
  "PhaseResolution": 1,
  "PixelBandwidth": 1717,
  "ProcedureStepDescription": "Diedrichsen_SeqRep4",
  "ProtocolName": "mbep2d_bold_mb2_p3_AP_2iso",
  "PulseSequenceDetails": "%CustomerSeq%_cmrr_mbep2d_bold",
  "ReceiveCoilName": "CFMM_8Tx32Rx",
  "ReconMatrixPE": 104,
  "RefLinesPE": 36,
  "RepetitionTime": 1,
  "ScanOptions": "PFP_FS",
  "ScanningSequence": "EP",
  "SequenceName": "epfid2d1_104",
  "SequenceVariant": "SK_SS",
  "SeriesDescription": "mbep2d_bold_mb2_p3_AP_2iso",
  "SeriesNumber": 19,
  "ShimSetting": [43, 2073, 130, 1348, 227, 18, 60, -240],
  "SliceThickness": 2,
  "SliceTiming": [0, 0.23, 0.4575, 0.685, 0.9125, 0.1375, 0.365, 0.5925, 0.8225, 0.0475, 0.275, 0.5025, 0.73, 0.9575, 0.1825, 0.41, 0.64, 0.8675, 0.0925, 0.32, 0.5475, 0.775, 0, 0.23, 0.4575, 0.685, 0.9125, 0.1375, 0.365, 0.5925, 0.8225, 0.0475, 0.275, 0.5025, 0.73, 0.9575, 0.1825, 0.41, 0.64, 0.8675, 0.0925, 0.32, 0.5475, 0.775],
  "SoftwareVersions": "syngo_MR_B17",
  "SpacingBetweenSlices": 2,
  "StationName": "MASTER",
  "TaskName": "dsp",
  "TotalReadoutTime": 0.0230033,
  "TxRefAmp": 120,
  "dcmmeta_affine": [
    [-2.0, 0.0, 0.0, 105.4527816772461],
    [0.0, 1.9510691165924072, -0.4396924078464508, -105.30754089355469],
    [0.0, 0.4396924078464508, 1.9510689973831177, -38.27162170410156],
    [0.0, 0.0, 0.0, 1.0]
],
  "dcmmeta_reorient_transform": [
    [0.0, -1.0, 0.0, 103.0],
    [1.0, 0.0, 0.0, 0.0],
    [0.0, 0.0, 1.0, 0.0],
    [0.0, 0.0, 0.0, 1.0]
],
  "dcmmeta_shape": [104, 104, 44, 330],
  "dcmmeta_slice_dim": 2,
  "dcmmeta_version": 0.6,
  "global": {
    "const": {
      "AcquisitionMatrix": [104, 0, 0, 104],
      "AngioFlag": "N",
      "BitsAllocated": 16,
      "BitsStored": 12,
      "Columns": 728,
      "EchoNumbers": 1,
      "EchoTime": 20.0,
      "EchoTrainLength": 1,
      "FlipAngle": 30.0,
      "HighBit": 11,
      "ImageOrientationPatient": [1.0, 0.0, 0.0, 0.0, 0.97553454431481, -0.2198462027157],
      "ImagePositionPatient": [-729.45278453827, -704.38612969124, 144.20072741813],
      "ImageType": [
        "ORIGINAL",
        "PRIMARY",
        "M",
        "MB",
        "ND",
        "MOSAIC"
],
      "ImagedNucleus": "1H",
      "ImagingFrequency": 297.228774,
      "InPlanePhaseEncodingDirection": "COL",
      "MRAcquisitionType": "2D",
      "MagneticFieldStrength": 6.98,
      "Manufacturer": "SIEMENS",
      "ManufacturerModelName": "Investigational_Device_7T",
      "Modality": "MR",
      "NumberOfAverages": 1.0,
      "NumberOfPhaseEncodingSteps": 91,
      "PercentPhaseFieldOfView": 100.0,
      "PercentSampling": 100.0,
      "PerformedProcedureStepStartTime": "141304.296000",
      "PhotometricInterpretation": "MONOCHROME2",
      "PixelBandwidth": 1717.0,
      "PixelRepresentation": 0,
      "PixelSpacing": [2.0, 2.0],
      "ProtocolName": "mbep2d_bold_mb2_p3_AP 2iso",
      "RepetitionTime": 1000.0,
      "Rows": 728,
      "SAR": 0.0,
      "SamplesPerPixel": 1,
      "ScanOptions": [
        "PFP",
        "FS"
],
      "ScanningSequence": "EP",
      "SequenceName": "epfid2d1_104",
      "SequenceVariant": [
        "SK",
        "SS"
],
      "SeriesDescription": "mbep2d_bold_mb2_p3_AP 2iso",
      "SeriesNumber": 19,
      "SeriesTime": "150107.359000",
      "SliceLocation": -14.183824946493,
      "SliceThickness": 2.0,
      "SmallestImagePixelValue": 0,
      "SoftwareVersions": "syngo MR B17",
      "SpacingBetweenSlices": 1.9999999517033,
      "SpecificCharacterSet": "ISO_IR 100",
      "StudyID": "1",
      "StudyTime": "141304.171000",
      "TransmitCoilName": "CFMM_8Tx32Rx",
      "VariableFlipAngleFlag": "N",
      "WindowCenterWidthExplanation": "Algo1",
      "dBdt": 0.0},
    "slices": {}
  },
  "time": {
    "samples": {
      "AcquisitionNumber": [1, 2, 3, 4, 5, 6, 7, 8, 9, 10, 11, 12, 13, 14, 15, 16, 17, 18, 19, 20, 21, 22, 23, 24, 25, 26, 27, 28, 29, 30, 31, 32, 33, 34, 35, 36, 37, 38, 39, 40, 41, 42, 43, 44, 45, 46, 47, 48, 49, 50, 51, 52, 53, 54, 55, 56, 57, 58, 59, 60, 61, 62, 63, 64, 65, 66, 67, 68, 69, 70, 71, 72, 73, 74, 75, 76, 77, 78, 79, 80, 81, 82, 83, 84, 85, 86, 87, 88, 89, 90, 91, 92, 93, 94, 95, 96, 97, 98, 99, 100, 101, 102, 103, 104, 105, 106, 107, 108, 109, 110, 111, 112, 113, 114, 115, 116, 117, 118, 119, 120, 121, 122, 123, 124, 125, 126, 127, 128, 129, 130, 131, 132, 133, 134, 135, 136, 137, 138, 139, 140, 141, 142, 143, 144, 145, 146, 147, 148, 149, 150, 151, 152, 153, 154, 155, 156, 157, 158, 159, 160, 161, 162, 163, 164, 165, 166, 167, 168, 169, 170, 171, 172, 173, 174, 175, 176, 177, 178, 179, 180, 181, 182, 183, 184, 185, 186, 187, 188, 189, 190, 191, 192, 193, 194, 195, 196, 197, 198, 199, 200, 201, 202, 203, 204, 205, 206, 207, 208, 209, 210, 211, 212, 213, 214, 215, 216, 217, 218, 219, 220, 221, 222, 223, 224, 225, 226, 227, 228, 229, 230, 231, 232, 233, 234, 235, 236, 237, 238, 239, 240, 241, 242, 243, 244, 245, 246, 247, 248, 249, 250, 251, 252, 253, 254, 255, 256, 257, 258, 259, 260, 261, 262, 263, 264, 265, 266, 267, 268, 269, 270, 271, 272, 273, 274, 275, 276, 277, 278, 279, 280, 281, 282, 283, 284, 285, 286, 287, 288, 289, 290, 291, 292, 293, 294, 295, 296, 297, 298, 299, 300, 301, 302, 303, 304, 305, 306, 307, 308, 309, 310, 311, 312, 313, 314, 315, 316, 317, 318, 319, 320, 321, 322, 323, 324, 325, 326, 327, 328, 329, 330],
      "AcquisitionTime": ["150036.190000", "150037.195000", "150038.200000", "150039.202500", "150040.207500", "150041.210000", "150042.215000", "150043.220000", "150044.222500", "150045.227500", "150046.230000", "150047.235000", "150048.240000", "150049.242500", "150050.247500", "150051.250000", "150052.255000", "150053.260000", "150054.262500", "150055.267500", "150056.270000", "150057.275000", "150058.280000", "150059.282500", "150100.287500", "150101.290000", "150102.295000", "150103.300000", "150104.302500", "150105.307500", "150106.310000", "150107.315000", "150108.320000", "150109.322500", "150110.327500", "150111.332500", "150112.335000", "150113.340000", "150114.342500", "150115.347500", "150116.352500", "150117.355000", "150118.360000", "150119.362500", "150120.367500", "150121.372500", "150122.375000", "150123.380000", "150124.382500", "150125.387500", "150126.392500", "150127.395000", "150128.400000", "150129.402500", "150130.407500", "150131.412500", "150132.415000", "150133.420000", "150134.422500", "150135.427500", "150136.432500", "150137.435000", "150138.440000", "150139.442500", "150140.447500", "150141.452500", "150142.455000", "150143.460000", "150144.465000", "150145.467500", "150146.472500", "150147.475000", "150148.480000", "150149.485000", "150150.487500", "150151.492500", "150152.495000", "150153.500000", "150154.505000", "150155.507500", "150156.512500", "150157.515000", "150158.520000", "150159.525000", "150200.527500", "150201.532500", "150202.535000", "150203.540000", "150204.545000", "150205.547500", "150206.552500", "150207.555000", "150208.560000", "150209.565000", "150210.567500", "150211.572500", "150212.577500", "150213.580000", "150214.585000", "150215.587500", "150216.592500", "150217.597500", "150218.600000", "150219.605000", "150220.607500", "150221.612500", "150222.617500", "150223.620000", "150224.625000", "150225.627500", "150226.632500", "150227.637500", "150228.640000", "150229.645000", "150230.647500", "150231.652500", "150232.657500", "150233.660000", "150234.665000", "150235.667500", "150236.672500", "150237.677500", "150238.680000", "150239.685000", "150240.687500", "150241.692500", "150242.697500", "150243.700000", "150244.705000", "150245.710000", "150246.712500", "150247.717500", "150248.720000", "150249.725000", "150250.730000", "150251.732500", "150252.737500", "150253.740000", "150254.745000", "150255.750000", "150256.752500", "150257.757500", "150258.760000", "150259.765000", "150300.770000", "150301.772500", "150302.777500", "150303.780000", "150304.785000", "150305.790000", "150306.792500", "150307.797500", "150308.800000", "150309.805000", "150310.810000", "150311.812500", "150312.817500", "150313.820000", "150314.825000", "150315.830000", "150316.832500", "150317.837500", "150318.842500", "150319.845000", "150320.850000", "150321.852500", "150322.857500", "150323.862500", "150324.865000", "150325.870000", "150326.872500", "150327.877500", "150328.882500", "150329.885000", "150330.890000", "150331.892500", "150332.897500", "150333.902500", "150334.905000", "150335.910000", "150336.912500", "150337.917500", "150338.922500", "150339.925000", "150340.930000", "150341.932500", "150342.937500", "150343.942500", "150344.945000", "150345.950000", "150346.955000", "150347.957500", "150348.962500", "150349.965000", "150350.970000", "150351.975000", "150352.977500", "150353.982500", "150354.985000", "150355.990000", "150356.995000", "150357.997500", "150359.002500", "150400.005000", "150401.010000", "150402.015000", "150403.017500", "150404.022500", "150405.025000", "150406.030000", "150407.035000", "150408.037500", "150409.042500", "150410.045000", "150411.050000", "150412.055000", "150413.057500", "150414.062500", "150415.065000", "150416.070000", "150417.075000", "150418.077500", "150419.082500", "150420.087500", "150421.090000", "150422.095000", "150423.097500", "150424.102500", "150425.107500", "150426.110000", "150427.115000", "150428.117500", "150429.122500", "150430.127500", "150431.130000", "150432.135000", "150433.137500", "150434.142500", "150435.147500", "150436.150000", "150437.155000", "150438.157500", "150439.162500", "150440.167500", "150441.170000", "150442.175000", "150443.177500", "150444.182500", "150445.187500", "150446.190000", "150447.195000", "150448.200000", "150449.202500", "150450.207500", "150451.210000", "150452.215000", "150453.220000", "150454.222500", "150455.227500", "150456.230000", "150457.235000", "150458.240000", "150459.242500", "150500.247500", "150501.250000", "150502.255000", "150503.260000", "150504.262500", "150505.267500", "150506.270000", "150507.275000", "150508.280000", "150509.282500", "150510.287500", "150511.290000", "150512.295000", "150513.300000", "150514.302500", "150515.307500", "150516.310000", "150517.315000", "150518.320000", "150519.322500", "150520.327500", "150521.332500", "150522.335000", "150523.340000", "150524.342500", "150525.347500", "150526.352500", "150527.355000", "150528.360000", "150529.362500", "150530.367500", "150531.372500", "150532.375000", "150533.380000", "150534.382500", "150535.387500", "150536.392500", "150537.395000", "150538.400000", "150539.402500", "150540.407500", "150541.412500", "150542.415000", "150543.420000", "150544.422500", "150545.427500", "150546.432500", "150547.435000", "150548.440000", "150549.442500", "150550.447500", "150551.452500", "150552.455000", "150553.460000", "150554.465000", "150555.467500", "150556.472500", "150557.475000", "150558.480000", "150559.485000", "150600.487500", "150601.492500", "150602.495000", "150603.500000", "150604.505000", "150605.507500", "150606.512500"],
      "ContentTime": ["150107.359000", "150107.359000", "150107.359000", "150107.359000", "150107.375000", "150107.375000", "150107.375000", "150107.375000", "150107.375000", "150107.375000", "150107.390000", "150107.390000", "150107.390000", "150107.390000", "150107.390000", "150107.406000", "150107.406000", "150107.406000", "150107.406000", "150107.406000", "150107.406000", "150107.421000", "150107.421000", "150107.421000", "150107.421000", "150107.421000", "150107.421000", "150107.421000", "150107.437000", "150127.328000", "150127.328000", "150127.328000", "150127.328000", "150127.328000", "150127.328000", "150127.343000", "150127.343000", "150127.343000", "150127.343000", "150127.343000", "150127.343000", "150127.359000", "150127.359000", "150127.359000", "150127.359000", "150127.359000", "150127.359000", "150127.359000", "150127.375000", "150147.328000", "150147.328000", "150147.328000", "150147.328000", "150147.328000", "150147.328000", "150147.343000", "150147.343000", "150147.343000", "150147.343000", "150147.343000", "150147.343000", "150147.343000", "150147.359000", "150147.359000", "150147.359000", "150147.359000", "150147.359000", "150147.359000", "150147.359000", "150207.328000", "150207.328000", "150207.328000", "150207.328000", "150207.328000", "150207.343000", "150207.343000", "150207.343000", "150207.343000", "150207.343000", "150207.359000", "150207.359000", "150207.359000", "150207.359000", "150207.359000", "150207.359000", "150207.359000", "150207.375000", "150207.375000", "150207.375000", "150227.328000", "150227.328000", "150227.328000", "150227.328000", "150227.343000", "150227.343000", "150227.343000", "150227.343000", "150227.343000", "150227.343000", "150227.343000", "150227.359000", "150227.359000", "150227.359000", "150227.359000", "150227.359000", "150227.359000", "150227.359000", "150227.375000", "150227.375000", "150247.328000", "150247.328000", "150247.328000", "150247.328000", "150247.328000", "150247.328000", "150247.343000", "150247.343000", "150247.343000", "150247.343000", "150247.343000", "150247.343000", "150247.359000", "150247.359000", "150247.359000", "150247.359000", "150247.359000", "150247.359000", "150247.359000", "150247.375000", "150307.328000", "150307.328000", "150307.328000", "150307.328000", "150307.328000", "150307.328000", "150307.343000", "150307.343000", "150307.343000", "150307.343000", "150307.343000", "150307.343000", "150307.343000", "150307.359000", "150307.359000", "150307.359000", "150307.359000", "150307.359000", "150307.359000", "150307.359000", "150327.328000", "150327.328000", "150327.328000", "150327.328000", "150327.328000", "150327.328000", "150327.343000", "150327.343000", "150327.343000", "150327.359000", "150327.359000", "150327.359000", "150327.359000", "150327.359000", "150327.375000", "150327.375000", "150327.375000", "150327.375000", "150327.390000", "150327.390000", "150347.328000", "150347.328000", "150347.328000", "150347.328000", "150347.328000", "150347.328000", "150347.343000", "150347.343000", "150347.343000", "150347.343000", "150347.359000", "150347.359000", "150347.359000", "150347.359000", "150347.359000", "150347.359000", "150347.375000", "150347.375000", "150347.375000", "150347.375000", "150407.328000", "150407.328000", "150407.328000", "150407.328000", "150407.328000", "150407.328000", "150407.343000", "150407.343000", "150407.343000", "150407.343000", "150407.343000", "150407.343000", "150407.343000", "150407.359000", "150407.359000", "150407.359000", "150407.359000", "150407.359000", "150407.359000", "150407.359000", "150427.328000", "150427.328000", "150427.328000", "150427.328000", "150427.328000", "150427.343000", "150427.343000", "150427.343000", "150427.343000", "150427.343000", "150427.359000", "150427.359000", "150427.359000", "150427.359000", "150427.359000", "150427.359000", "150427.359000", "150427.375000", "150427.375000", "150427.375000", "150447.328000", "150447.328000", "150447.328000", "150447.328000", "150447.328000", "150447.328000", "150447.343000", "150447.343000", "150447.343000", "150447.343000", "150447.343000", "150447.359000", "150447.359000", "150447.359000", "150447.359000", "150447.359000", "150447.375000", "150447.375000", "150447.375000", "150447.375000", "150507.328000", "150507.328000", "150507.328000", "150507.328000", "150507.328000", "150507.328000", "150507.343000", "150507.343000", "150507.343000", "150507.343000", "150507.343000", "150507.343000", "150507.343000", "150507.359000", "150507.359000", "150507.359000", "150507.359000", "150507.359000", "150507.359000", "150507.359000", "150527.328000", "150527.328000", "150527.328000", "150527.328000", "150527.328000", "150527.328000", "150527.343000", "150527.343000", "150527.343000", "150527.343000", "150527.343000", "150527.343000", "150527.343000", "150527.359000", "150527.359000", "150527.359000", "150527.359000", "150527.359000", "150527.359000", "150527.359000", "150547.328000", "150547.328000", "150547.328000", "150547.328000", "150547.328000", "150547.328000", "150547.343000", "150547.343000", "150547.343000", "150547.343000", "150547.359000", "150547.359000", "150547.359000", "150547.359000", "150547.359000", "150547.359000", "150547.359000", "150547.375000", "150547.375000", "150547.375000", "150607.328000", "150607.328000", "150607.328000", "150607.328000", "150607.328000", "150607.328000", "150607.343000", "150607.343000", "150607.343000", "150607.343000", "150607.343000", "150607.359000", "150607.359000", "150607.359000", "150607.359000", "150607.359000", "150607.375000", "150607.375000", "150607.375000", "150607.375000", "150612.562000"],
      "InstanceCreationTime": ["150107.359000", "150107.359000", "150107.359000", "150107.359000", "150107.375000", "150107.375000", "150107.375000", "150107.375000", "150107.375000", "150107.375000", "150107.390000", "150107.390000", "150107.390000", "150107.390000", "150107.390000", "150107.406000", "150107.406000", "150107.406000", "150107.406000", "150107.406000", "150107.406000", "150107.421000", "150107.421000", "150107.421000", "150107.421000", "150107.421000", "150107.421000", "150107.421000", "150107.437000", "150127.328000", "150127.328000", "150127.328000", "150127.328000", "150127.328000", "150127.328000", "150127.343000", "150127.343000", "150127.343000", "150127.343000", "150127.343000", "150127.343000", "150127.359000", "150127.359000", "150127.359000", "150127.359000", "150127.359000", "150127.359000", "150127.359000", "150127.375000", "150147.328000", "150147.328000", "150147.328000", "150147.328000", "150147.328000", "150147.328000", "150147.343000", "150147.343000", "150147.343000", "150147.343000", "150147.343000", "150147.343000", "150147.343000", "150147.359000", "150147.359000", "150147.359000", "150147.359000", "150147.359000", "150147.359000", "150147.359000", "150207.328000", "150207.328000", "150207.328000", "150207.328000", "150207.328000", "150207.343000", "150207.343000", "150207.343000", "150207.343000", "150207.343000", "150207.359000", "150207.359000", "150207.359000", "150207.359000", "150207.359000", "150207.359000", "150207.359000", "150207.375000", "150207.375000", "150207.375000", "150227.328000", "150227.328000", "150227.328000", "150227.328000", "150227.343000", "150227.343000", "150227.343000", "150227.343000", "150227.343000", "150227.343000", "150227.343000", "150227.359000", "150227.359000", "150227.359000", "150227.359000", "150227.359000", "150227.359000", "150227.359000", "150227.375000", "150227.375000", "150247.328000", "150247.328000", "150247.328000", "150247.328000", "150247.328000", "150247.328000", "150247.343000", "150247.343000", "150247.343000", "150247.343000", "150247.343000", "150247.343000", "150247.359000", "150247.359000", "150247.359000", "150247.359000", "150247.359000", "150247.359000", "150247.359000", "150247.375000", "150307.328000", "150307.328000", "150307.328000", "150307.328000", "150307.328000", "150307.328000", "150307.343000", "150307.343000", "150307.343000", "150307.343000", "150307.343000", "150307.343000", "150307.343000", "150307.359000", "150307.359000", "150307.359000", "150307.359000", "150307.359000", "150307.359000", "150307.359000", "150327.328000", "150327.328000", "150327.328000", "150327.328000", "150327.328000", "150327.328000", "150327.343000", "150327.343000", "150327.343000", "150327.359000", "150327.359000", "150327.359000", "150327.359000", "150327.359000", "150327.375000", "150327.375000", "150327.375000", "150327.375000", "150327.390000", "150327.390000", "150347.328000", "150347.328000", "150347.328000", "150347.328000", "150347.328000", "150347.328000", "150347.343000", "150347.343000", "150347.343000", "150347.343000", "150347.359000", "150347.359000", "150347.359000", "150347.359000", "150347.359000", "150347.359000", "150347.375000", "150347.375000", "150347.375000", "150347.375000", "150407.328000", "150407.328000", "150407.328000", "150407.328000", "150407.328000", "150407.328000", "150407.343000", "150407.343000", "150407.343000", "150407.343000", "150407.343000", "150407.343000", "150407.343000", "150407.359000", "150407.359000", "150407.359000", "150407.359000", "150407.359000", "150407.359000", "150407.359000", "150427.328000", "150427.328000", "150427.328000", "150427.328000", "150427.328000", "150427.343000", "150427.343000", "150427.343000", "150427.343000", "150427.343000", "150427.359000", "150427.359000", "150427.359000", "150427.359000", "150427.359000", "150427.359000", "150427.359000", "150427.375000", "150427.375000", "150427.375000", "150447.328000", "150447.328000", "150447.328000", "150447.328000", "150447.328000", "150447.328000", "150447.343000", "150447.343000", "150447.343000", "150447.343000", "150447.343000", "150447.359000", "150447.359000", "150447.359000", "150447.359000", "150447.359000", "150447.375000", "150447.375000", "150447.375000", "150447.375000", "150507.328000", "150507.328000", "150507.328000", "150507.328000", "150507.328000", "150507.328000", "150507.343000", "150507.343000", "150507.343000", "150507.343000", "150507.343000", "150507.343000", "150507.343000", "150507.359000", "150507.359000", "150507.359000", "150507.359000", "150507.359000", "150507.359000", "150507.359000", "150527.328000", "150527.328000", "150527.328000", "150527.328000", "150527.328000", "150527.328000", "150527.343000", "150527.343000", "150527.343000", "150527.343000", "150527.343000", "150527.343000", "150527.343000", "150527.359000", "150527.359000", "150527.359000", "150527.359000", "150527.359000", "150527.359000", "150527.359000", "150547.328000", "150547.328000", "150547.328000", "150547.328000", "150547.328000", "150547.328000", "150547.343000", "150547.343000", "150547.343000", "150547.343000", "150547.359000", "150547.359000", "150547.359000", "150547.359000", "150547.359000", "150547.359000", "150547.359000", "150547.375000", "150547.375000", "150547.375000", "150607.328000", "150607.328000", "150607.328000", "150607.328000", "150607.328000", "150607.328000", "150607.343000", "150607.343000", "150607.343000", "150607.343000", "150607.343000", "150607.359000", "150607.359000", "150607.359000", "150607.359000", "150607.359000", "150607.375000", "150607.375000", "150607.375000", "150607.375000", "150612.562000"],
      "InstanceNumber": [1, 2, 3, 4, 5, 6, 7, 8, 9, 10, 11, 12, 13, 14, 15, 16, 17, 18, 19, 20, 21, 22, 23, 24, 25, 26, 27, 28, 29, 30, 31, 32, 33, 34, 35, 36, 37, 38, 39, 40, 41, 42, 43, 44, 45, 46, 47, 48, 49, 50, 51, 52, 53, 54, 55, 56, 57, 58, 59, 60, 61, 62, 63, 64, 65, 66, 67, 68, 69, 70, 71, 72, 73, 74, 75, 76, 77, 78, 79, 80, 81, 82, 83, 84, 85, 86, 87, 88, 89, 90, 91, 92, 93, 94, 95, 96, 97, 98, 99, 100, 101, 102, 103, 104, 105, 106, 107, 108, 109, 110, 111, 112, 113, 114, 115, 116, 117, 118, 119, 120, 121, 122, 123, 124, 125, 126, 127, 128, 129, 130, 131, 132, 133, 134, 135, 136, 137, 138, 139, 140, 141, 142, 143, 144, 145, 146, 147, 148, 149, 150, 151, 152, 153, 154, 155, 156, 157, 158, 159, 160, 161, 162, 163, 164, 165, 166, 167, 168, 169, 170, 171, 172, 173, 174, 175, 176, 177, 178, 179, 180, 181, 182, 183, 184, 185, 186, 187, 188, 189, 190, 191, 192, 193, 194, 195, 196, 197, 198, 199, 200, 201, 202, 203, 204, 205, 206, 207, 208, 209, 210, 211, 212, 213, 214, 215, 216, 217, 218, 219, 220, 221, 222, 223, 224, 225, 226, 227, 228, 229, 230, 231, 232, 233, 234, 235, 236, 237, 238, 239, 240, 241, 242, 243, 244, 245, 246, 247, 248, 249, 250, 251, 252, 253, 254, 255, 256, 257, 258, 259, 260, 261, 262, 263, 264, 265, 266, 267, 268, 269, 270, 271, 272, 273, 274, 275, 276, 277, 278, 279, 280, 281, 282, 283, 284, 285, 286, 287, 288, 289, 290, 291, 292, 293, 294, 295, 296, 297, 298, 299, 300, 301, 302, 303, 304, 305, 306, 307, 308, 309, 310, 311, 312, 313, 314, 315, 316, 317, 318, 319, 320, 321, 322, 323, 324, 325, 326, 327, 328, 329, 330],
      "LargestImagePixelValue": [2553, 2536, 2518, 2537, 2536, 2549, 2491, 2476, 2499, 2530, 2526, 2525, 2546, 2524, 2451, 2476, 2461, 2495, 2473, 2464, 2474, 2515, 2509, 2491, 2490, 2477, 2471, 2471, 2463, 2469, 2471, 2470, 2471, 2485, 2472, 2485, 2479, 2445, 2422, 2412, 2412, 2418, 2408, 2437, 2403, 2437, 2462, 2450, 2493, 2456, 2454, 2460, 2449, 2450, 2428, 2465, 2436, 2467, 2473, 2452, 2481, 2481, 2488, 2500, 2466, 2507, 2516, 2473, 2521, 2472, 2469, 2494, 2452, 2492, 2474, 2439, 2450, 2471, 2475, 2454, 2485, 2474, 2469, 2498, 2471, 2521, 2483, 2503, 2483, 2462, 2472, 2463, 2520, 2492, 2487, 2500, 2508, 2468, 2456, 2425, 2401, 2430, 2465, 2479, 2431, 2484, 2450, 2476, 2488, 2459, 2469, 2504, 2522, 2495, 2521, 2495, 2499, 2522, 2456, 2471, 2512, 2479, 2472, 2508, 2480, 2469, 2511, 2520, 2505, 2502, 2500, 2508, 2468, 2538, 2515, 2519, 2501, 2573, 2548, 2574, 2519, 2557, 2535, 2556, 2545, 2548, 2518, 2542, 2511, 2514, 2533, 2493, 2461, 2497, 2442, 2540, 2488, 2535, 2548, 2539, 2501, 2539, 2492, 2434, 2510, 2535, 2532, 2532, 2558, 2513, 2512, 2525, 2524, 2454, 2563, 2477, 2447, 2488, 2508, 2551, 2501, 2490, 2507, 2501, 2465, 2454, 2532, 2524, 2466, 2493, 2507, 2471, 2495, 2526, 2447, 2446, 2462, 2467, 2420, 2492, 2455, 2471, 2436, 2445, 2476, 2469, 2579, 2512, 2524, 2530, 2550, 2544, 2554, 2573, 2568, 2555, 2513, 2544, 2534, 2586, 2574, 2543, 2529, 2585, 2520, 2505, 2547, 2515, 2477, 2483, 2518, 2493, 2507, 2469, 2518, 2566, 2518, 2521, 2523, 2491, 2491, 2478, 2512, 2536, 2561, 2487, 2451, 2507, 2501, 2489, 2480, 2484, 2534, 2501, 2537, 2487, 2472, 2461, 2475, 2489, 2461, 2523, 2532, 2520, 2511, 2460, 2455, 2487, 2489, 2494, 2506, 2507, 2577, 2582, 2487, 2559, 2494, 2517, 2511, 2506, 2539, 2557, 2527, 2540, 2515, 2512, 2566, 2511, 2535, 2549, 2545, 2525, 2518, 2527, 2543, 2555, 2516, 2467, 2497, 2465, 2483, 2478, 2490, 2494, 2513, 2519, 2543, 2551, 2548, 2535, 2530, 2529, 2580, 2524, 2546, 2530, 2536, 2519, 2527, 2576, 2535, 2526, 2538, 2557, 2520, 2516, 2540, 2487, 2477, 2454],
      "WindowCenter": [424.0, 422.0, 422.0, 422.0, 422.0, 421.0, 421.0, 422.0, 422.0, 422.0, 421.0, 422.0, 422.0, 422.0, 421.0, 420.0, 420.0, 421.0, 421.0, 421.0, 421.0, 421.0, 421.0, 422.0, 421.0, 420.0, 420.0, 420.0, 421.0, 421.0, 421.0, 422.0, 421.0, 421.0, 421.0, 421.0, 421.0, 420.0, 420.0, 420.0, 421.0, 421.0, 420.0, 420.0, 420.0, 420.0, 420.0, 420.0, 420.0, 420.0, 420.0, 419.0, 419.0, 420.0, 420.0, 420.0, 420.0, 420.0, 421.0, 421.0, 421.0, 421.0, 420.0, 420.0, 420.0, 420.0, 420.0, 420.0, 421.0, 421.0, 421.0, 422.0, 421.0, 421.0, 421.0, 421.0, 421.0, 421.0, 421.0, 420.0, 421.0, 421.0, 421.0, 421.0, 421.0, 422.0, 422.0, 422.0, 422.0, 422.0, 422.0, 422.0, 421.0, 421.0, 422.0, 422.0, 423.0, 424.0, 422.0, 422.0, 421.0, 421.0, 422.0, 421.0, 420.0, 419.0, 419.0, 419.0, 419.0, 420.0, 420.0, 420.0, 421.0, 421.0, 421.0, 421.0, 422.0, 421.0, 421.0, 421.0, 422.0, 422.0, 422.0, 422.0, 421.0, 421.0, 422.0, 421.0, 421.0, 421.0, 421.0, 421.0, 422.0, 421.0, 422.0, 422.0, 421.0, 422.0, 421.0, 422.0, 422.0, 423.0, 423.0, 423.0, 422.0, 422.0, 422.0, 422.0, 422.0, 422.0, 422.0, 423.0, 422.0, 422.0, 422.0, 422.0, 422.0, 422.0, 421.0, 422.0, 422.0, 422.0, 422.0, 422.0, 422.0, 422.0, 421.0, 421.0, 422.0, 422.0, 422.0, 421.0, 421.0, 421.0, 422.0, 421.0, 421.0, 421.0, 421.0, 421.0, 421.0, 422.0, 421.0, 420.0, 420.0, 420.0, 421.0, 419.0, 418.0, 419.0, 419.0, 420.0, 421.0, 421.0, 420.0, 420.0, 420.0, 421.0, 421.0, 421.0, 421.0, 421.0, 421.0, 422.0, 423.0, 423.0, 424.0, 423.0, 423.0, 422.0, 422.0, 422.0, 422.0, 422.0, 422.0, 423.0, 424.0, 424.0, 424.0, 424.0, 423.0, 423.0, 423.0, 423.0, 423.0, 422.0, 423.0, 424.0, 423.0, 423.0, 423.0, 423.0, 422.0, 422.0, 421.0, 420.0, 421.0, 422.0, 423.0, 422.0, 422.0, 422.0, 423.0, 422.0, 423.0, 421.0, 421.0, 421.0, 421.0, 420.0, 420.0, 421.0, 422.0, 422.0, 422.0, 422.0, 423.0, 423.0, 423.0, 422.0, 421.0, 421.0, 422.0, 423.0, 424.0, 423.0, 423.0, 422.0, 422.0, 422.0, 421.0, 420.0, 421.0, 421.0, 421.0, 422.0, 423.0, 423.0, 423.0, 423.0, 423.0, 423.0, 422.0, 422.0, 422.0, 422.0, 422.0, 422.0, 422.0, 421.0, 422.0, 422.0, 423.0, 422.0, 423.0, 423.0, 422.0, 422.0, 422.0, 421.0, 422.0, 422.0, 421.0, 421.0, 421.0, 422.0, 422.0, 422.0, 422.0, 422.0, 421.0, 422.0, 423.0, 423.0, 423.0, 422.0, 422.0, 422.0, 422.0, 422.0, 422.0, 422.0, 421.0, 422.0, 422.0, 422.0, 422.0, 422.0, 422.0, 423.0],
