{
    "AcquisitionMatrixPE": 84,
    "AcquisitionNumber": 1,
    "AcquisitionTime": "10:39:59.097500",
    "BaseResolution": 168,
    "CoilString": "C:E1_2",
    "ConversionSoftware": "dcm2niix",
    "ConversionSoftwareVersion": "v1.0.20191031",
    "DeviceSerialNumber": "18932",
    "DwellTime": 4.9e-06,
    "EchoNumber": 2,
    "EchoTime": 0.0051,
    "EchoTime1": 0.00408,
    "EchoTime2": 0.0051,
    "FlipAngle": 35,
    "ImageOrientationPatientDICOM": [
        1,
        -2.05103e-10,
        0,
        2.05103e-10,
        1,
        0
    ],
    "ImageType": [
        "ORIGINAL",
        "PRIMARY",
        "P",
        "ND",
        "PHASE"
    ],
    "ImagingFrequency": 297.229,
    "InPlanePhaseEncodingDirectionDICOM": "ROW",
    "InstitutionAddress": "Richmond_Street_North_1151_London_409EF2_Ontario_CA_N6A_5B7",
    "InstitutionName": "Robarts_Reserch_Institute",
    "InstitutionalDepartmentName": "Department",
    "MRAcquisitionType": "2D",
    "MagneticFieldStrength": 6.98,
    "Manufacturer": "Siemens",
    "ManufacturersModelName": "Investigational_Device_7T",
    "Modality": "MR",
    "MultibandAccelerationFactor": 2,
    "PartialFourier": 0.75,
    "PatientPosition": "HFS",
    "PercentPhaseFOV": 100,
    "PhaseEncodingDirection": "i",
    "PhaseEncodingSteps": 63,
    "PhaseResolution": 0.5,
    "PixelBandwidth": 607,
    "ProcedureStepDescription": "Diedrichsen_SeqRep4",
    "ProtocolName": "gre_field_mapping",
    "PulseSequenceDetails": "%SiemensSeq%_gre_field_mapping",
    "ReceiveCoilName": "CFMM_8Tx32Rx",
    "ReconMatrixPE": 168,
    "RepetitionTime": 0.475,
    "ScanOptions": "PFP",
    "ScanningSequence": "GR",
    "SequenceName": "fm2d2r",
    "SequenceVariant": "SP",
    "SeriesDescription": "gre_field_mapping",
    "SeriesNumber": 41,
    "ShimSetting": [
        38,
        2034,
        46,
        1324,
        90,
        41,
        125,
        -176
    ],
    "SliceThickness": 2.5,
    "SliceTiming": [
        0.23438,
        0,
        0.24219,
        0.00781,
        0.25,
        0.01562,
        0.25781,
        0.02344,
        0.26562,
        0.03125,
        0.27344,
        0.03906,
        0.28125,
        0.04688,
        0.28906,
        0.04688,
        0.29688,
        0.05469,
        0.30469,
        0.0625,
        0.3125,
        0.07031,
        0.32031,
        0.07812,
        0.32812,
        0.08594,
        0.33594,
        0.09375,
        0.34375,
        0.10156,
        0.35156,
        0.10938,
        0.35938,
        0.11719,
        0.35938,
        0.125,
        0.36719,
        0.13281,
        0.375,
        0.14062,
        0.38281,
        0.14844,
        0.39062,
        0.15625,
        0.39844,
        0.16406,
        0.40625,
        0.17188,
        0.41406,
        0.17969,
        0.42188,
        0.1875,
        0.42969,
        0.19531,
        0.4375,
        0.20312,
        0.44531,
        0.21094,
        0.45312,
        0.21875,
        0.46094,
        0.22656,
        0.46875,
        0.23438
    ],
    "SoftwareVersions": "syngo_MR_B17",
    "SpacingBetweenSlices": 2.5,
    "StationName": "MASTER",
    "TxRefAmp": 117.63,
    "dcmmeta_affine": [
        [
            -1.25,
            2.5637925116228644e-10,
            0.0,
            108.45358276367188
        ],
        [
            2.5637925116228644e-10,
            1.25,
            0.0,
            -95.8815689086914
        ],
        [
            0.0,
            0.0,
            2.5,
            -70.75533294677734
        ],
        [
            0.0,
            0.0,
            0.0,
            1.0
        ]
    ],
    "dcmmeta_reorient_transform": [
        [
            0.0,
            -1.0,
            0.0,
            167.0
        ],
        [
            1.0,
            0.0,
            0.0,
            0.0
        ],
        [
            0.0,
            0.0,
            -1.0,
            63.0
        ],
        [
            0.0,
            0.0,
            0.0,
            1.0
        ]
    ],
    "dcmmeta_shape": [
        168,
        168,
        64
    ],
    "dcmmeta_slice_dim": 2,
    "dcmmeta_version": 0.6,
    "global": {
        "const": {
            "AcquisitionMatrix": [
                0,
                168,
                84,
                0
            ],
            "AcquisitionNumber": 1,
            "AngioFlag": "N",
            "BitsAllocated": 16,
            "BitsStored": 12,
            "Columns": 168,
            "EchoNumbers": 2,
            "EchoTime": 5.1,
            "EchoTrainLength": 1,
            "FlipAngle": 35.0,
            "HighBit": 11,
            "ImageOrientationPatient": [
                1.0,
                -2.051034e-10,
                0.0,
                2.051034e-10,
                1.0,
                0.0
            ],
            "ImageType": [
                "ORIGINAL",
                "PRIMARY",
                "P",
                "ND"
            ],
            "ImagedNucleus": "1H",
            "ImagingFrequency": 297.228998,
            "InPlanePhaseEncodingDirection": "ROW",
            "MRAcquisitionType": "2D",
            "MagneticFieldStrength": 6.98,
            "Manufacturer": "SIEMENS",
            "ManufacturerModelName": "Investigational_Device_7T",
            "Modality": "MR",
            "NumberOfAverages": 1.0,
            "NumberOfPhaseEncodingSteps": 63,
            "PercentPhaseFieldOfView": 100.0,
            "PercentSampling": 50.0,
            "PerformedProcedureStepStartTime": "091304.843000",
            "PhotometricInterpretation": "MONOCHROME2",
            "PixelBandwidth": 607.0,
            "PixelRepresentation": 0,
            "PixelSpacing": [
                1.25,
                1.25
            ],
            "ProtocolName": "gre_field_mapping",
            "RepetitionTime": 475.0,
            "RescaleIntercept": -4096.0,
            "RescaleSlope": 2.0,
            "RescaleType": "US",
            "Rows": 168,
            "SAR": 0.0,
            "SamplesPerPixel": 1,
            "ScanOptions": "PFP",
            "ScanningSequence": "GR",
            "SequenceName": "fm2d2r",
            "SequenceVariant": "SP",
            "SeriesDescription": "gre_field_mapping",
            "SeriesNumber": 41,
            "SeriesTime": "104105.890000",
            "SliceThickness": 2.5,
            "SoftwareVersions": "syngo MR B17",
            "SpacingBetweenSlices": 2.5,
            "SpecificCharacterSet": "ISO_IR 100",
            "StudyID": "1",
            "StudyTime": "091304.796000",
            "TransmitCoilName": "CFMM_8Tx32Rx",
            "VariableFlipAngleFlag": "N",
            "WindowCenterWidthExplanation": "Algo1",
            "dBdt": 0.0
        },
        "slices": {
            "AcquisitionTime": [
                "103959.097500",
                "103958.857500",
                "103959.105000",
                "103958.865000",
                "103959.112500",
                "103958.872500",
                "103959.117500",
                "103958.880000",
                "103959.125000",
                "103958.887500",
                "103959.132500",
                "103958.895000",
                "103959.140000",
                "103958.902500",
                "103959.147500",
                "103958.910000",
                "103959.155000",
                "103958.917500",
                "103959.162500",
                "103958.925000",
                "103959.170000",
                "103958.932500",
                "103959.177500",
                "103958.940000",
                "103959.185000",
                "103958.947500",
                "103959.192500",
                "103958.955000",
                "103959.200000",
                "103958.962500",
                "103959.207500",
                "103958.970000",
                "103959.215000",
                "103958.977500",
                "103959.222500",
                "103958.985000",
                "103959.230000",
                "103958.992500",
                "103959.237500",
                "103959.000000",
                "103959.245000",
                "103959.007500",
                "103959.252500",
                "103959.015000",
                "103959.260000",
                "103959.022500",
                "103959.267500",
                "103959.030000",
                "103959.275000",
                "103959.037500",
                "103959.282500",
                "103959.045000",
                "103959.290000",
                "103959.052500",
                "103959.297500",
                "103959.060000",
                "103959.305000",
                "103959.067500",
                "103959.312500",
                "103959.075000",
                "103959.320000",
                "103959.082500",
                "103959.327500",
                "103959.090000"
            ],
            "ContentTime": [
                "104105.968000",
                "104105.890000",
                "104105.968000",
                "104105.906000",
                "104105.968000",
                "104105.906000",
                "104105.968000",
                "104105.906000",
                "104105.968000",
                "104105.906000",
                "104105.968000",
                "104105.906000",
                "104105.984000",
                "104105.906000",
                "104105.984000",
                "104105.906000",
                "104105.984000",
                "104105.906000",
                "104105.984000",
                "104105.906000",
                "104105.984000",
                "104105.921000",
                "104106.000000",
                "104105.921000",
                "104106.000000",
                "104105.921000",
                "104106.000000",
                "104105.921000",
                "104106.000000",
                "104105.921000",
                "104106.000000",
                "104105.921000",
                "104106.000000",
                "104105.921000",
                "104106.000000",
                "104105.921000",
                "104106.000000",
                "104105.937000",
                "104106.000000",
                "104105.937000",
                "104106.015000",
                "104105.937000",
                "104106.015000",
                "104105.937000",
                "104106.015000",
                "104105.953000",
                "104106.015000",
                "104105.953000",
                "104106.015000",
                "104105.953000",
                "104106.031000",
                "104105.953000",
                "104106.031000",
                "104105.953000",
                "104106.031000",
                "104105.953000",
                "104106.031000",
                "104105.953000",
                "104106.046000",
                "104105.953000",
                "104106.046000",
                "104105.968000",
                "104106.046000",
                "104105.968000"
            ],
            "CsaImage.ICE_Dims": [
                "X_2_1_1_1_1_1_33_1_1_1_1_53",
                "X_2_1_1_1_1_1_1_1_1_2_1_53",
                "X_2_1_1_1_1_1_34_1_1_3_1_53",
                "X_2_1_1_1_1_1_2_1_1_4_1_53",
                "X_2_1_1_1_1_1_35_1_1_5_1_53",
                "X_2_1_1_1_1_1_3_1_1_6_1_53",
                "X_2_1_1_1_1_1_36_1_1_7_1_53",
                "X_2_1_1_1_1_1_4_1_1_8_1_53",
                "X_2_1_1_1_1_1_37_1_1_9_1_53",
                "X_2_1_1_1_1_1_5_1_1_10_1_53",
                "X_2_1_1_1_1_1_38_1_1_11_1_53",
                "X_2_1_1_1_1_1_6_1_1_12_1_53",
                "X_2_1_1_1_1_1_39_1_1_13_1_53",
                "X_2_1_1_1_1_1_7_1_1_14_1_53",
                "X_2_1_1_1_1_1_40_1_1_15_1_53",
                "X_2_1_1_1_1_1_8_1_1_16_1_53",
                "X_2_1_1_1_1_1_41_1_1_17_1_53",
                "X_2_1_1_1_1_1_9_1_1_18_1_53",
                "X_2_1_1_1_1_1_42_1_1_19_1_53",
                "X_2_1_1_1_1_1_10_1_1_20_1_53",
                "X_2_1_1_1_1_1_43_1_1_21_1_53",
                "X_2_1_1_1_1_1_11_1_1_22_1_53",
                "X_2_1_1_1_1_1_44_1_1_23_1_53",
                "X_2_1_1_1_1_1_12_1_1_24_1_53",
                "X_2_1_1_1_1_1_45_1_1_25_1_53",
                "X_2_1_1_1_1_1_13_1_1_26_1_53",
                "X_2_1_1_1_1_1_46_1_1_27_1_53",
                "X_2_1_1_1_1_1_14_1_1_28_1_53",
                "X_2_1_1_1_1_1_47_1_1_29_1_53",
                "X_2_1_1_1_1_1_15_1_1_30_1_53",
                "X_2_1_1_1_1_1_48_1_1_31_1_53",
                "X_2_1_1_1_1_1_16_1_1_32_1_53",
                "X_2_1_1_1_1_1_49_1_1_33_1_53",
                "X_2_1_1_1_1_1_17_1_1_34_1_53",
                "X_2_1_1_1_1_1_50_1_1_35_1_53",
                "X_2_1_1_1_1_1_18_1_1_36_1_53",
                "X_2_1_1_1_1_1_51_1_1_37_1_53",
                "X_2_1_1_1_1_1_19_1_1_38_1_53",
                "X_2_1_1_1_1_1_52_1_1_39_1_53",
                "X_2_1_1_1_1_1_20_1_1_40_1_53",
                "X_2_1_1_1_1_1_53_1_1_41_1_53",
                "X_2_1_1_1_1_1_21_1_1_42_1_53",
                "X_2_1_1_1_1_1_54_1_1_43_1_53",
                "X_2_1_1_1_1_1_22_1_1_44_1_53",
                "X_2_1_1_1_1_1_55_1_1_45_1_53",
                "X_2_1_1_1_1_1_23_1_1_46_1_53",
                "X_2_1_1_1_1_1_56_1_1_47_1_53",
                "X_2_1_1_1_1_1_24_1_1_48_1_53",
                "X_2_1_1_1_1_1_57_1_1_49_1_53",
                "X_2_1_1_1_1_1_25_1_1_50_1_53",
                "X_2_1_1_1_1_1_58_1_1_51_1_53",
                "X_2_1_1_1_1_1_26_1_1_52_1_53",
                "X_2_1_1_1_1_1_59_1_1_53_1_53",
                "X_2_1_1_1_1_1_27_1_1_54_1_53",
                "X_2_1_1_1_1_1_60_1_1_55_1_53",
                "X_2_1_1_1_1_1_28_1_1_56_1_53",
                "X_2_1_1_1_1_1_61_1_1_57_1_53",
                "X_2_1_1_1_1_1_29_1_1_58_1_53",
                "X_2_1_1_1_1_1_62_1_1_59_1_53",
                "X_2_1_1_1_1_1_30_1_1_60_1_53",
                "X_2_1_1_1_1_1_63_1_1_61_1_53",
                "X_2_1_1_1_1_1_31_1_1_62_1_53",
                "X_2_1_1_1_1_1_64_1_1_63_1_53",
                "X_2_1_1_1_1_1_32_1_1_64_1_53"
            ],
            "CsaImage.ProtocolSliceNumber": [
                0,
                1,
                2,
                3,
                4,
                5,
                6,
                7,
                8,
                9,
                10,
                11,
                12,
                13,
                14,
                15,
                16,
                17,
                18,
                19,
                20,
                21,
                22,
                23,
                24,
                25,
                26,
                27,
                28,
                29,
                30,
                31,
                32,
                33,
                34,
                35,
                36,
                37,
                38,
                39,
                40,
                41,
                42,
                43,
                44,
                45,
                46,
                47,
                48,
                49,
                50,
                51,
                52,
                53,
                54,
                55,
                56,
                57,
                58,
                59,
                60,
                61,
                62,
                63
            ],
            "CsaImage.SliceMeasurementDuration": [
                59135.0,
                59137.5,
                59135.0,
                59137.5,
                59135.0,
                59137.5,
                59137.5,
                59137.5,
                59137.5,
                59137.5,
                59137.5,
                59137.5,
                59137.5,
                59137.5,
                59137.5,
                59137.5,
                59137.5,
                59137.5,
                59137.5,
                59137.5,
                59137.5,
                59137.5,
                59137.5,
                59137.5,
                59137.5,
                59137.5,
                59137.5,
                59137.5,
                59137.5,
                59137.5,
                59137.5,
                59137.5,
                59137.5,
                59135.0,
                59137.5,
                59135.0,
                59137.5,
                59135.0,
                59137.5,
                59135.0,
                59137.5,
                59135.0,
                59137.5,
                59135.0,
                59137.5,
                59135.0,
                59137.5,
                59135.0,
                59137.5,
                59135.0,
                59137.5,
                59135.0,
                59137.5,
                59135.0,
                59137.5,
                59135.0,
                59137.5,
                59135.0,
                59137.5,
                59135.0,
                59137.5,
                59135.0,
                59137.5,
                59135.0
            ],
            "CsaImage.SlicePosition_PCS": [
                [
                    -108.45357945,
                    -112.86843393,
                    -70.75533295
                ],
                [
                    -108.45357945,
                    -112.86843393,
                    -68.25533295
                ],
                [
                    -108.45357945,
                    -112.86843393,
                    -65.75533295
                ],
                [
                    -108.45357945,
                    -112.86843393,
                    -63.25533295
                ],
                [
                    -108.45357945,
                    -112.86843393,
                    -60.75533295
                ],
                [
                    -108.45357945,
                    -112.86843393,
                    -58.25533295
                ],
                [
                    -108.45357945,
                    -112.86843393,
                    -55.75533295
                ],
                [
                    -108.45357945,
                    -112.86843393,
                    -53.25533295
                ],
                [
                    -108.45357945,
                    -112.86843393,
                    -50.75533295
                ],
                [
                    -108.45357945,
                    -112.86843393,
                    -48.25533295
                ],
                [
                    -108.45357945,
                    -112.86843393,
                    -45.75533295
                ],
                [
                    -108.45357945,
                    -112.86843393,
                    -43.25533295
                ],
                [
                    -108.45357945,
                    -112.86843393,
                    -40.75533295
                ],
                [
                    -108.45357945,
                    -112.86843393,
                    -38.25533295
                ],
                [
                    -108.45357945,
                    -112.86843393,
                    -35.75533295
                ],
                [
                    -108.45357945,
                    -112.86843393,
                    -33.25533295
                ],
                [
                    -108.45357945,
                    -112.86843393,
                    -30.75533104
                ],
                [
                    -108.45357945,
                    -112.86843393,
                    -28.25533104
                ],
                [
                    -108.45357945,
                    -112.86843393,
                    -25.75533104
                ],
                [
                    -108.45357945,
                    -112.86843393,
                    -23.25533104
                ],
                [
                    -108.45357945,
                    -112.86843393,
                    -20.75533104
                ],
                [
                    -108.45357945,
                    -112.86843393,
                    -18.25533104
                ],
                [
                    -108.45357945,
                    -112.86843393,
                    -15.75533199
                ],
                [
                    -108.45357945,
                    -112.86843393,
                    -13.25533199
                ],
                [
                    -108.45357945,
                    -112.86843393,
                    -10.75533199
                ],
                [
                    -108.45357945,
                    -112.86843393,
                    -8.25533199
                ],
                [
                    -108.45357945,
                    -112.86843393,
                    -5.75533199
                ],
                [
                    -108.45357945,
                    -112.86843393,
                    -3.25533199
                ],
                [
                    -108.45357945,
                    -112.86843393,
                    -0.75533193
                ],
                [
                    -108.45357945,
                    -112.86843393,
                    1.74466813
                ],
                [
                    -108.45357945,
                    -112.86843393,
                    4.24466801
                ],
                [
                    -108.45357945,
                    -112.86843393,
                    6.74466801
                ],
                [
                    -108.45357945,
                    -112.86843393,
                    9.24466801
                ],
                [
                    -108.45357945,
                    -112.86843393,
                    11.74466801
                ],
                [
                    -108.45357945,
                    -112.86843393,
                    14.24466801
                ],
                [
                    -108.45357945,
                    -112.86843393,
                    16.74466896
                ],
                [
                    -108.45357945,
                    -112.86843393,
                    19.24466896
                ],
                [
                    -108.45357945,
                    -112.86843393,
                    21.74466896
                ],
                [
                    -108.45357945,
                    -112.86843393,
                    24.24466896
                ],
                [
                    -108.45357945,
                    -112.86843393,
                    26.74466896
                ],
                [
                    -108.45357945,
                    -112.86843393,
                    29.24466896
                ],
                [
                    -108.45357945,
                    -112.86843393,
                    31.74466896
                ],
                [
                    -108.45357945,
                    -112.86843393,
                    34.24466705
                ],
                [
                    -108.45357945,
                    -112.86843393,
                    36.74466705
                ],
                [
                    -108.45357945,
                    -112.86843393,
                    39.24466705
                ],
                [
                    -108.45357945,
                    -112.86843393,
                    41.74466705
                ],
                [
                    -108.45357945,
                    -112.86843393,
                    44.24466705
                ],
                [
                    -108.45357945,
                    -112.86843393,
                    46.74466705
                ],
                [
                    -108.45357945,
                    -112.86843393,
                    49.24466705
                ],
                [
                    -108.45357945,
                    -112.86843393,
                    51.74466705
                ],
                [
                    -108.45357945,
                    -112.86843393,
                    54.24466705
                ],
                [
                    -108.45357945,
                    -112.86843393,
                    56.74466705
                ],
                [
                    -108.45357945,
                    -112.86843393,
                    59.24466705
                ],
                [
                    -108.45357945,
                    -112.86843393,
                    61.74466705
                ],
                [
                    -108.45357945,
                    -112.86843393,
                    64.24466705
                ],
                [
                    -108.45357945,
                    -112.86843393,
                    66.74466705
                ],
                [
                    -108.45357945,
                    -112.86843393,
                    69.24466705
                ],
                [
                    -108.45357945,
                    -112.86843393,
                    71.74466705
                ],
                [
                    -108.45357945,
                    -112.86843393,
                    74.24466705
                ],
                [
                    -108.45357945,
                    -112.86843393,
                    76.74466705
                ],
                [
                    -108.45357945,
                    -112.86843393,
                    79.24466705
                ],
                [
                    -108.45357945,
                    -112.86843393,
                    81.74466705
                ],
                [
                    -108.45357945,
                    -112.86843393,
                    84.24466705
                ],
                [
                    -108.45357945,
                    -112.86843393,
                    86.74466705
                ]
            ],
            "CsaImage.TimeAfterStart": [
                0.7175,
                0.4775,
                0.725,
                0.485,
                0.7325,
                0.4925,
                0.74,
                0.5,
                0.7475,
                0.5075,
                0.755,
                0.515,
                0.7625,
                0.5225,
                0.77,
                0.53,
                0.775,
                0.5375,
                0.7825,
                0.545,
                0.79,
                0.5525,
                0.7975,
                0.56,
                0.805,
                0.5675,
                0.8125,
                0.575,
                0.82,
                0.5825,
                0.8275,
                0.59,
                0.835,
                0.5975,
                0.8425,
                0.605,
                0.85,
                0.6125,
                0.8575,
                0.62,
                0.865,
                0.6275,
                0.8725,
                0.635,
                0.88,
                0.6425,
                0.8875,
                0.65,
                0.895,
                0.6575,
                0.9025,
                0.665,
                0.91,
                0.6725,
                0.9175,
                0.68,
                0.925,
                0.6875,
                0.9325,
                0.695,
                0.94,
                0.7025,
                0.9475,
                0.71
            ],
            "ImagePositionPatient": [
                [
                    -108.45357944735,
                    -112.8684339308,
                    -70.755332946777
                ],
                [
                    -108.45357944735,
                    -112.8684339308,
                    -68.255332946777
                ],
                [
                    -108.45357944735,
                    -112.8684339308,
                    -65.755332946777
                ],
                [
                    -108.45357944735,
                    -112.8684339308,
                    -63.255332946777
                ],
                [
                    -108.45357944735,
                    -112.8684339308,
                    -60.755332946777
                ],
                [
                    -108.45357944735,
                    -112.8684339308,
                    -58.255332946777
                ],
                [
                    -108.45357944735,
                    -112.8684339308,
                    -55.755332946777
                ],
                [
                    -108.45357944735,
                    -112.8684339308,
                    -53.255332946777
                ],
                [
                    -108.45357944735,
                    -112.8684339308,
                    -50.755332946777
                ],
                [
                    -108.45357944735,
                    -112.8684339308,
                    -48.255332946777
                ],
                [
                    -108.45357944735,
                    -112.8684339308,
                    -45.755332946777
                ],
                [
                    -108.45357944735,
                    -112.8684339308,
                    -43.255332946777
                ],
                [
                    -108.45357944735,
                    -112.8684339308,
                    -40.755332946777
                ],
                [
                    -108.45357944735,
                    -112.8684339308,
                    -38.255332946777
                ],
                [
                    -108.45357944735,
                    -112.8684339308,
                    -35.755332946777
                ],
                [
