{
  "AcquisitionMatrixPE": 104,
  "AcquisitionNumber": 1,
  "AcquisitionTime": "10:13:1.860000",
  "BandwidthPerPixelPhaseEncode": 43.054,
  "BaseResolution": 104,
  "CoilString": "C:E1_2",
  "ConversionSoftware": "dcm2niix",
  "ConversionSoftwareVersion": "v1.0.20191031",
  "DerivedVendorReportedEchoSpacing": 0.000669999,
  "DeviceSerialNumber": "18932",
  "DwellTime": 2.8e-06,
  "EchoTime": 0.02,
  "EffectiveEchoSpacing": 0.000223333,
  "FlipAngle": 30,
  "ImageComments": "Unaliased_MB2_PE2",
  "ImageOrientationPatientDICOM": [1, 2e-16, 0, -2e-16, 0.965926, -0.258819],
  "ImageType": [
    "ORIGINAL",
    "PRIMARY",
    "M",
    "MB",
    "ND",
    "MOSAIC"
],
  "ImagingFrequency": 297.23,
  "InPlanePhaseEncodingDirectionDICOM": "COL",
  "InstitutionAddress": "Richmond_Street_North_1151_London_409EF2_Ontario_CA_N6A_5B7",
  "InstitutionName": "Robarts_Reserch_Institute",
  "InstitutionalDepartmentName": "Department",
  "MRAcquisitionType": "2D",
  "MagneticFieldStrength": 6.98,
  "Manufacturer": "Siemens",
  "ManufacturersModelName": "Investigational_Device_7T",
  "Modality": "MR",
  "MultibandAccelerationFactor": 2,
  "ParallelReductionFactorInPlane": 3,
  "PartialFourier": 0.875,
  "PatientPosition": "HFS",
  "PercentPhaseFOV": 100,
  "PhaseEncodingDirection": "j-",
  "PhaseEncodingSteps": 91,
  "PhaseResolution": 1,
  "PixelBandwidth": 1717,
  "ProcedureStepDescription": "Diedrichsen_SeqRep4",
  "ProtocolName": "mbep2d_bold_mb2_p3_AP_2iso",
  "PulseSequenceDetails": "%CustomerSeq%_cmrr_mbep2d_bold",
  "ReceiveCoilName": "CFMM_8Tx32Rx",
  "ReconMatrixPE": 104,
  "RefLinesPE": 36,
  "RepetitionTime": 1,
  "ScanOptions": "PFP_FS",
  "ScanningSequence": "EP",
  "SequenceName": "epfid2d1_104",
  "SequenceVariant": "SK_SS",
  "SeriesDescription": "mbep2d_bold_mb2_p3_AP_2iso",
  "SeriesNumber": 31,
  "ShimSetting": [-5, 1998, 309, 43, -98, -114, -302, -166],
  "SliceThickness": 2,
  "SliceTiming": [0, 0.2275, 0.4575, 0.685, 0.9125, 0.1375, 0.365, 0.5925, 0.8225, 0.045, 0.275, 0.5025, 0.73, 0.9575, 0.1825, 0.41, 0.64, 0.8675, 0.0925, 0.32, 0.5475, 0.775, 0, 0.2275, 0.4575, 0.685, 0.9125, 0.1375, 0.365, 0.5925, 0.8225, 0.045, 0.275, 0.5025, 0.73, 0.9575, 0.1825, 0.41, 0.64, 0.8675, 0.0925, 0.32, 0.5475, 0.775],
  "SoftwareVersions": "syngo_MR_B17",
  "SpacingBetweenSlices": 2,
  "StationName": "MASTER",
  "TaskName": "dsp",
  "TotalReadoutTime": 0.0230033,
  "TxRefAmp": 120,
  "dcmmeta_affine": [
    [-2.0, -4.000000067449534e-16, 1.035276159788667e-16, 103.27360534667969],
    [-4.000000067449534e-16, 1.9318516254425049, -0.517638087272644, -100.47244262695312],
    [0.0, 0.517638087272644, 1.9318516254425049, -65.80461883544922],
    [0.0, 0.0, 0.0, 1.0]
],
  "dcmmeta_reorient_transform": [
    [0.0, -1.0, 0.0, 103.0],
    [1.0, 0.0, 0.0, 0.0],
    [0.0, 0.0, 1.0, 0.0],
    [0.0, 0.0, 0.0, 1.0]
],
  "dcmmeta_shape": [104, 104, 44, 330],
  "dcmmeta_slice_dim": 2,
  "dcmmeta_version": 0.6,
  "global": {
    "const": {
      "AcquisitionMatrix": [104, 0, 0, 104],
      "AngioFlag": "N",
      "BitsAllocated": 16,
      "BitsStored": 12,
      "Columns": 728,
      "EchoNumbers": 1,
      "EchoTime": 20.0,
      "EchoTrainLength": 1,
      "FlipAngle": 30.0,
      "HighBit": 11,
      "ImageOrientationPatient": [1.0, 2e-16, 0.0, -2e-16, 0.9659258278573, -0.2588190392498],
      "ImagePositionPatient": [-727.27360773087, -701.24599295073, 149.01518168592],
      "ImageType": [
        "ORIGINAL",
        "PRIMARY",
        "M",
        "MB",
        "ND",
        "MOSAIC"
],
      "ImagedNucleus": "1H",
      "ImagingFrequency": 297.229864,
      "InPlanePhaseEncodingDirection": "COL",
      "MRAcquisitionType": "2D",
      "MagneticFieldStrength": 6.98,
      "Manufacturer": "SIEMENS",
      "ManufacturerModelName": "Investigational_Device_7T",
      "Modality": "MR",
      "NumberOfAverages": 1.0,
      "NumberOfPhaseEncodingSteps": 91,
      "PercentPhaseFieldOfView": 100.0,
      "PercentSampling": 100.0,
      "PerformedProcedureStepStartTime": "091301.203000",
      "PhotometricInterpretation": "MONOCHROME2",
      "PixelBandwidth": 1717.0,
      "PixelRepresentation": 0,
      "PixelSpacing": [2.0, 2.0],
      "ProtocolName": "mbep2d_bold_mb2_p3_AP 2iso",
      "RepetitionTime": 1000.0,
      "Rows": 728,
      "SAR": 0.0,
      "SamplesPerPixel": 1,
      "ScanOptions": [
        "PFP",
        "FS"
],
      "ScanningSequence": "EP",
      "SequenceName": "epfid2d1_104",
      "SequenceVariant": [
        "SK",
        "SS"
],
      "SeriesDescription": "mbep2d_bold_mb2_p3_AP 2iso",
      "SeriesNumber": 31,
      "SeriesTime": "101325.375000",
      "SliceLocation": -37.558201440006,
      "SliceThickness": 2.0,
      "SmallestImagePixelValue": 0,
      "SoftwareVersions": "syngo MR B17",
      "SpacingBetweenSlices": 2.0000000219488,
      "SpecificCharacterSet": "ISO_IR 100",
      "StudyID": "1",
      "StudyTime": "091301.140000",
      "TransmitCoilName": "CFMM_8Tx32Rx",
      "VariableFlipAngleFlag": "N",
      "WindowCenterWidthExplanation": "Algo1",
      "dBdt": 0.0},
    "slices": {}
  },
  "time": {
    "samples": {
      "AcquisitionNumber": [1, 2, 3, 4, 5, 6, 7, 8, 9, 10, 11, 12, 13, 14, 15, 16, 17, 18, 19, 20, 21, 22, 23, 24, 25, 26, 27, 28, 29, 30, 31, 32, 33, 34, 35, 36, 37, 38, 39, 40, 41, 42, 43, 44, 45, 46, 47, 48, 49, 50, 51, 52, 53, 54, 55, 56, 57, 58, 59, 60, 61, 62, 63, 64, 65, 66, 67, 68, 69, 70, 71, 72, 73, 74, 75, 76, 77, 78, 79, 80, 81, 82, 83, 84, 85, 86, 87, 88, 89, 90, 91, 92, 93, 94, 95, 96, 97, 98, 99, 100, 101, 102, 103, 104, 105, 106, 107, 108, 109, 110, 111, 112, 113, 114, 115, 116, 117, 118, 119, 120, 121, 122, 123, 124, 125, 126, 127, 128, 129, 130, 131, 132, 133, 134, 135, 136, 137, 138, 139, 140, 141, 142, 143, 144, 145, 146, 147, 148, 149, 150, 151, 152, 153, 154, 155, 156, 157, 158, 159, 160, 161, 162, 163, 164, 165, 166, 167, 168, 169, 170, 171, 172, 173, 174, 175, 176, 177, 178, 179, 180, 181, 182, 183, 184, 185, 186, 187, 188, 189, 190, 191, 192, 193, 194, 195, 196, 197, 198, 199, 200, 201, 202, 203, 204, 205, 206, 207, 208, 209, 210, 211, 212, 213, 214, 215, 216, 217, 218, 219, 220, 221, 222, 223, 224, 225, 226, 227, 228, 229, 230, 231, 232, 233, 234, 235, 236, 237, 238, 239, 240, 241, 242, 243, 244, 245, 246, 247, 248, 249, 250, 251, 252, 253, 254, 255, 256, 257, 258, 259, 260, 261, 262, 263, 264, 265, 266, 267, 268, 269, 270, 271, 272, 273, 274, 275, 276, 277, 278, 279, 280, 281, 282, 283, 284, 285, 286, 287, 288, 289, 290, 291, 292, 293, 294, 295, 296, 297, 298, 299, 300, 301, 302, 303, 304, 305, 306, 307, 308, 309, 310, 311, 312, 313, 314, 315, 316, 317, 318, 319, 320, 321, 322, 323, 324, 325, 326, 327, 328, 329, 330],
      "AcquisitionTime": ["101301.860000", "101302.865000", "101303.867500", "101304.872500", "101305.877500", "101306.880000", "101307.885000", "101308.887500", "101309.892500", "101310.897500", "101311.900000", "101312.905000", "101313.907500", "101314.912500", "101315.917500", "101316.920000", "101317.925000", "101318.930000", "101319.932500", "101320.937500", "101321.940000", "101322.945000", "101323.950000", "101324.952500", "101325.957500", "101326.960000", "101327.965000", "101328.970000", "101329.972500", "101330.977500", "101331.980000", "101332.985000", "101333.990000", "101334.992500", "101335.997500", "101337.000000", "101338.005000", "101339.010000", "101340.012500", "101341.017500", "101342.020000", "101343.025000", "101344.030000", "101345.032500", "101346.037500", "101347.040000", "101348.045000", "101349.050000", "101350.052500", "101351.057500", "101352.062500", "101353.065000", "101354.070000", "101355.072500", "101356.077500", "101357.082500", "101358.085000", "101359.090000", "101400.092500", "101401.097500", "101402.102500", "101403.105000", "101404.110000", "101405.112500", "101406.117500", "101407.122500", "101408.125000", "101409.130000", "101410.132500", "101411.137500", "101412.142500", "101413.145000", "101414.150000", "101415.152500", "101416.157500", "101417.162500", "101418.165000", "101419.170000", "101420.175000", "101421.177500", "101422.182500", "101423.185000", "101424.190000", "101425.195000", "101426.197500", "101427.202500", "101428.205000", "101429.210000", "101430.215000", "101431.217500", "101432.222500", "101433.225000", "101434.230000", "101435.235000", "101436.237500", "101437.242500", "101438.245000", "101439.250000", "101440.255000", "101441.257500", "101442.262500", "101443.265000", "101444.270000", "101445.275000", "101446.277500", "101447.282500", "101448.285000", "101449.290000", "101450.295000", "101451.297500", "101452.302500", "101453.307500", "101454.310000", "101455.315000", "101456.317500", "101457.322500", "101458.327500", "101459.330000", "101500.335000", "101501.337500", "101502.342500", "101503.347500", "101504.350000", "101505.355000", "101506.357500", "101507.362500", "101508.367500", "101509.370000", "101510.375000", "101511.377500", "101512.382500", "101513.387500", "101514.390000", "101515.395000", "101516.397500", "101517.402500", "101518.407500", "101519.410000", "101520.415000", "101521.417500", "101522.422500", "101523.427500", "101524.430000", "101525.435000", "101526.440000", "101527.442500", "101528.447500", "101529.450000", "101530.455000", "101531.460000", "101532.462500", "101533.467500", "101534.470000", "101535.475000", "101536.480000", "101537.482500", "101538.487500", "101539.490000", "101540.495000", "101541.500000", "101542.502500", "101543.507500", "101544.510000", "101545.515000", "101546.520000", "101547.522500", "101548.527500", "101549.530000", "101550.535000", "101551.540000", "101552.542500", "101553.547500", "101554.552500", "101555.555000", "101556.560000", "101557.562500", "101558.567500", "101559.572500", "101600.575000", "101601.580000", "101602.582500", "101603.587500", "101604.592500", "101605.595000", "101606.600000", "101607.602500", "101608.607500", "101609.612500", "101610.615000", "101611.620000", "101612.622500", "101613.627500", "101614.632500", "101615.635000", "101616.640000", "101617.642500", "101618.647500", "101619.652500", "101620.655000", "101621.660000", "101622.662500", "101623.667500", "101624.672500", "101625.675000", "101626.680000", "101627.685000", "101628.687500", "101629.692500", "101630.695000", "101631.700000", "101632.705000", "101633.707500", "101634.712500", "101635.715000", "101636.720000", "101637.725000", "101638.727500", "101639.732500", "101640.735000", "101641.740000", "101642.745000", "101643.747500", "101644.752500", "101645.755000", "101646.760000", "101647.765000", "101648.767500", "101649.772500", "101650.775000", "101651.780000", "101652.785000", "101653.787500", "101654.792500", "101655.797500", "101656.800000", "101657.805000", "101658.807500", "101659.812500", "101700.817500", "101701.820000", "101702.825000", "101703.827500", "101704.832500", "101705.837500", "101706.840000", "101707.845000", "101708.847500", "101709.852500", "101710.857500", "101711.860000", "101712.865000", "101713.867500", "101714.872500", "101715.877500", "101716.880000", "101717.885000", "101718.887500", "101719.892500", "101720.897500", "101721.900000", "101722.905000", "101723.907500", "101724.912500", "101725.917500", "101726.920000", "101727.925000", "101728.930000", "101729.932500", "101730.937500", "101731.940000", "101732.945000", "101733.950000", "101734.952500", "101735.957500", "101736.960000", "101737.965000", "101738.970000", "101739.972500", "101740.977500", "101741.980000", "101742.985000", "101743.990000", "101744.992500", "101745.997500", "101747.000000", "101748.005000", "101749.010000", "101750.012500", "101751.017500", "101752.020000", "101753.025000", "101754.030000", "101755.032500", "101756.037500", "101757.040000", "101758.045000", "101759.050000", "101800.052500", "101801.057500", "101802.062500", "101803.065000", "101804.070000", "101805.072500", "101806.077500", "101807.082500", "101808.085000", "101809.090000", "101810.092500", "101811.097500", "101812.102500", "101813.105000", "101814.110000", "101815.112500", "101816.117500", "101817.122500", "101818.125000", "101819.130000", "101820.132500", "101821.137500", "101822.142500", "101823.145000", "101824.150000", "101825.152500", "101826.157500", "101827.162500", "101828.165000", "101829.170000", "101830.175000", "101831.177500", "101832.182500"],
      "ContentTime": ["101325.375000", "101325.390000", "101325.390000", "101325.390000", "101325.390000", "101325.390000", "101325.390000", "101325.390000", "101325.406000", "101325.406000", "101325.406000", "101325.406000", "101325.406000", "101325.406000", "101325.406000", "101325.406000", "101325.421000", "101325.421000", "101325.421000", "101325.421000", "101325.421000", "101325.421000", "101345.343000", "101345.343000", "101345.343000", "101345.343000", "101345.343000", "101345.359000", "101345.359000", "101345.359000", "101345.359000", "101345.359000", "101345.359000", "101345.375000", "101345.375000", "101345.375000", "101345.375000", "101345.390000", "101345.390000", "101345.390000", "101345.390000", "101345.390000", "101405.343000", "101405.343000", "101405.343000", "101405.343000", "101405.343000", "101405.359000", "101405.359000", "101405.359000", "101405.359000", "101405.359000", "101405.359000", "101405.359000", "101405.375000", "101405.375000", "101405.390000", "101405.390000", "101405.390000", "101405.390000", "101405.390000", "101405.390000", "101425.343000", "101425.343000", "101425.343000", "101425.343000", "101425.359000", "101425.359000", "101425.359000", "101425.359000", "101425.359000", "101425.359000", "101425.359000", "101425.375000", "101425.375000", "101425.375000", "101425.375000", "101425.375000", "101425.375000", "101425.375000", "101425.390000", "101425.390000", "101445.343000", "101445.343000", "101445.343000", "101445.343000", "101445.343000", "101445.359000", "101445.359000", "101445.359000", "101445.359000", "101445.359000", "101445.359000", "101445.359000", "101445.375000", "101445.375000", "101445.375000", "101445.375000", "101445.375000", "101445.375000", "101445.375000", "101445.375000", "101505.343000", "101505.343000", "101505.343000", "101505.343000", "101505.343000", "101505.359000", "101505.359000", "101505.359000", "101505.359000", "101505.359000", "101505.359000", "101505.359000", "101505.375000", "101505.375000", "101505.375000", "101505.375000", "101505.375000", "101505.375000", "101505.375000", "101505.375000", "101525.343000", "101525.343000", "101525.343000", "101525.343000", "101525.343000", "101525.359000", "101525.359000", "101525.359000", "101525.359000", "101525.359000", "101525.359000", "101525.375000", "101525.375000", "101525.375000", "101525.375000", "101525.375000", "101525.375000", "101525.375000", "101525.390000", "101525.390000", "101545.343000", "101545.343000", "101545.343000", "101545.359000", "101545.359000", "101545.359000", "101545.359000", "101545.359000", "101545.359000", "101545.375000", "101545.375000", "101545.375000", "101545.375000", "101545.375000", "101545.375000", "101545.375000", "101545.390000", "101545.390000", "101545.390000", "101545.390000", "101605.343000", "101605.343000", "101605.343000", "101605.343000", "101605.343000", "101605.359000", "101605.359000", "101605.359000", "101605.359000", "101605.359000", "101605.359000", "101605.359000", "101605.375000", "101605.375000", "101605.375000", "101605.375000", "101605.375000", "101605.375000", "101605.375000", "101605.390000", "101625.343000", "101625.343000", "101625.343000", "101625.343000", "101625.343000", "101625.359000", "101625.359000", "101625.359000", "101625.359000", "101625.359000", "101625.359000", "101625.359000", "101625.375000", "101625.375000", "101625.375000", "101625.375000", "101625.375000", "101625.375000", "101625.375000", "101625.375000", "101645.343000", "101645.343000", "101645.343000", "101645.343000", "101645.343000", "101645.359000", "101645.359000", "101645.359000", "101645.359000", "101645.359000", "101645.359000", "101645.375000", "101645.375000", "101645.375000", "101645.375000", "101645.375000", "101645.375000", "101645.375000", "101645.390000", "101645.390000", "101705.343000", "101705.343000", "101705.343000", "101705.343000", "101705.343000", "101705.359000", "101705.359000", "101705.359000", "101705.359000", "101705.359000", "101705.359000", "101705.359000", "101705.375000", "101705.375000", "101705.375000", "101705.375000", "101705.375000", "101705.375000", "101705.375000", "101705.390000", "101725.343000", "101725.343000", "101725.343000", "101725.343000", "101725.343000", "101725.359000", "101725.359000", "101725.359000", "101725.359000", "101725.359000", "101725.359000", "101725.359000", "101725.375000", "101725.375000", "101725.375000", "101725.375000", "101725.375000", "101725.375000", "101725.390000", "101725.390000", "101745.343000", "101745.343000", "101745.343000", "101745.343000", "101745.343000", "101745.359000", "101745.359000", "101745.359000", "101745.375000", "101745.375000", "101745.375000", "101745.375000", "101745.375000", "101745.375000", "101745.390000", "101745.390000", "101745.390000", "101745.390000", "101745.390000", "101745.390000", "101805.343000", "101805.343000", "101805.343000", "101805.343000", "101805.359000", "101805.359000", "101805.359000", "101805.359000", "101805.359000", "101805.359000", "101805.375000", "101805.375000", "101805.375000", "101805.375000", "101805.375000", "101805.375000", "101805.375000", "101805.390000", "101805.390000", "101805.390000", "101825.343000", "101825.343000", "101825.343000", "101825.343000", "101825.343000", "101825.359000", "101825.359000", "101825.359000", "101825.359000", "101825.359000", "101825.359000", "101825.375000", "101825.375000", "101825.375000", "101825.375000", "101825.375000", "101825.375000", "101825.375000", "101825.390000", "101825.390000", "101837.828000", "101837.828000", "101837.828000", "101837.828000", "101837.828000", "101837.843000", "101837.843000", "101837.843000"],
      "InstanceCreationTime": ["101325.375000", "101325.390000", "101325.390000", "101325.390000", "101325.390000", "101325.390000", "101325.390000", "101325.390000", "101325.406000", "101325.406000", "101325.406000", "101325.406000", "101325.406000", "101325.406000", "101325.406000", "101325.406000", "101325.421000", "101325.421000", "101325.421000", "101325.421000", "101325.421000", "101325.421000", "101345.343000", "101345.343000", "101345.343000", "101345.343000", "101345.343000", "101345.359000", "101345.359000", "101345.359000", "101345.359000", "101345.359000", "101345.359000", "101345.375000", "101345.375000", "101345.375000", "101345.375000", "101345.390000", "101345.390000", "101345.390000", "101345.390000", "101345.390000", "101405.343000", "101405.343000", "101405.343000", "101405.343000", "101405.343000", "101405.359000", "101405.359000", "101405.359000", "101405.359000", "101405.359000", "101405.359000", "101405.359000", "101405.375000", "101405.375000", "101405.390000", "101405.390000", "101405.390000", "101405.390000", "101405.390000", "101405.390000", "101425.343000", "101425.343000", "101425.343000", "101425.343000", "101425.359000", "101425.359000", "101425.359000", "101425.359000", "101425.359000", "101425.359000", "101425.359000", "101425.375000", "101425.375000", "101425.375000", "101425.375000", "101425.375000", "101425.375000", "101425.375000", "101425.390000", "101425.390000", "101445.343000", "101445.343000", "101445.343000", "101445.343000", "101445.343000", "101445.359000", "101445.359000", "101445.359000", "101445.359000", "101445.359000", "101445.359000", "101445.359000", "101445.375000", "101445.375000", "101445.375000", "101445.375000", "101445.375000", "101445.375000", "101445.375000", "101445.375000", "101505.343000", "101505.343000", "101505.343000", "101505.343000", "101505.343000", "101505.359000", "101505.359000", "101505.359000", "101505.359000", "101505.359000", "101505.359000", "101505.359000", "101505.375000", "101505.375000", "101505.375000", "101505.375000", "101505.375000", "101505.375000", "101505.375000", "101505.375000", "101525.343000", "101525.343000", "101525.343000", "101525.343000", "101525.343000", "101525.359000", "101525.359000", "101525.359000", "101525.359000", "101525.359000", "101525.359000", "101525.375000", "101525.375000", "101525.375000", "101525.375000", "101525.375000", "101525.375000", "101525.375000", "101525.390000", "101525.390000", "101545.343000", "101545.343000", "101545.343000", "101545.359000", "101545.359000", "101545.359000", "101545.359000", "101545.359000", "101545.359000", "101545.375000", "101545.375000", "101545.375000", "101545.375000", "101545.375000", "101545.375000", "101545.375000", "101545.390000", "101545.390000", "101545.390000", "101545.390000", "101605.343000", "101605.343000", "101605.343000", "101605.343000", "101605.343000", "101605.359000", "101605.359000", "101605.359000", "101605.359000", "101605.359000", "101605.359000", "101605.359000", "101605.375000", "101605.375000", "101605.375000", "101605.375000", "101605.375000", "101605.375000", "101605.375000", "101605.390000", "101625.343000", "101625.343000", "101625.343000", "101625.343000", "101625.343000", "101625.359000", "101625.359000", "101625.359000", "101625.359000", "101625.359000", "101625.359000", "101625.359000", "101625.375000", "101625.375000", "101625.375000", "101625.375000", "101625.375000", "101625.375000", "101625.375000", "101625.375000", "101645.343000", "101645.343000", "101645.343000", "101645.343000", "101645.343000", "101645.359000", "101645.359000", "101645.359000", "101645.359000", "101645.359000", "101645.359000", "101645.375000", "101645.375000", "101645.375000", "101645.375000", "101645.375000", "101645.375000", "101645.375000", "101645.390000", "101645.390000", "101705.343000", "101705.343000", "101705.343000", "101705.343000", "101705.343000", "101705.359000", "101705.359000", "101705.359000", "101705.359000", "101705.359000", "101705.359000", "101705.359000", "101705.375000", "101705.375000", "101705.375000", "101705.375000", "101705.375000", "101705.375000", "101705.375000", "101705.390000", "101725.343000", "101725.343000", "101725.343000", "101725.343000", "101725.343000", "101725.359000", "101725.359000", "101725.359000", "101725.359000", "101725.359000", "101725.359000", "101725.359000", "101725.375000", "101725.375000", "101725.375000", "101725.375000", "101725.375000", "101725.375000", "101725.390000", "101725.390000", "101745.343000", "101745.343000", "101745.343000", "101745.343000", "101745.343000", "101745.359000", "101745.359000", "101745.359000", "101745.375000", "101745.375000", "101745.375000", "101745.375000", "101745.375000", "101745.375000", "101745.390000", "101745.390000", "101745.390000", "101745.390000", "101745.390000", "101745.390000", "101805.343000", "101805.343000", "101805.343000", "101805.343000", "101805.359000", "101805.359000", "101805.359000", "101805.359000", "101805.359000", "101805.359000", "101805.375000", "101805.375000", "101805.375000", "101805.375000", "101805.375000", "101805.375000", "101805.375000", "101805.390000", "101805.390000", "101805.390000", "101825.343000", "101825.343000", "101825.343000", "101825.343000", "101825.343000", "101825.359000", "101825.359000", "101825.359000", "101825.359000", "101825.359000", "101825.359000", "101825.375000", "101825.375000", "101825.375000", "101825.375000", "101825.375000", "101825.375000", "101825.375000", "101825.390000", "101825.390000", "101837.828000", "101837.828000", "101837.828000", "101837.828000", "101837.828000", "101837.843000", "101837.843000", "101837.843000"],
      "InstanceNumber": [1, 2, 3, 4, 5, 6, 7, 8, 9, 10, 11, 12, 13, 14, 15, 16, 17, 18, 19, 20, 21, 22, 23, 24, 25, 26, 27, 28, 29, 30, 31, 32, 33, 34, 35, 36, 37, 38, 39, 40, 41, 42, 43, 44, 45, 46, 47, 48, 49, 50, 51, 52, 53, 54, 55, 56, 57, 58, 59, 60, 61, 62, 63, 64, 65, 66, 67, 68, 69, 70, 71, 72, 73, 74, 75, 76, 77, 78, 79, 80, 81, 82, 83, 84, 85, 86, 87, 88, 89, 90, 91, 92, 93, 94, 95, 96, 97, 98, 99, 100, 101, 102, 103, 104, 105, 106, 107, 108, 109, 110, 111, 112, 113, 114, 115, 116, 117, 118, 119, 120, 121, 122, 123, 124, 125, 126, 127, 128, 129, 130, 131, 132, 133, 134, 135, 136, 137, 138, 139, 140, 141, 142, 143, 144, 145, 146, 147, 148, 149, 150, 151, 152, 153, 154, 155, 156, 157, 158, 159, 160, 161, 162, 163, 164, 165, 166, 167, 168, 169, 170, 171, 172, 173, 174, 175, 176, 177, 178, 179, 180, 181, 182, 183, 184, 185, 186, 187, 188, 189, 190, 191, 192, 193, 194, 195, 196, 197, 198, 199, 200, 201, 202, 203, 204, 205, 206, 207, 208, 209, 210, 211, 212, 213, 214, 215, 216, 217, 218, 219, 220, 221, 222, 223, 224, 225, 226, 227, 228, 229, 230, 231, 232, 233, 234, 235, 236, 237, 238, 239, 240, 241, 242, 243, 244, 245, 246, 247, 248, 249, 250, 251, 252, 253, 254, 255, 256, 257, 258, 259, 260, 261, 262, 263, 264, 265, 266, 267, 268, 269, 270, 271, 272, 273, 274, 275, 276, 277, 278, 279, 280, 281, 282, 283, 284, 285, 286, 287, 288, 289, 290, 291, 292, 293, 294, 295, 296, 297, 298, 299, 300, 301, 302, 303, 304, 305, 306, 307, 308, 309, 310, 311, 312, 313, 314, 315, 316, 317, 318, 319, 320, 321, 322, 323, 324, 325, 326, 327, 328, 329, 330],
      "LargestImagePixelValue": [1756, 1735, 1729, 1723, 1724, 1721, 1669, 1660, 1692, 1675, 1645, 1721, 1666, 1662, 1662, 1672, 1690, 1698, 1671, 1660, 1671, 1669, 1644, 1659, 1692, 1678, 1625, 1677, 1675, 1626, 1656, 1654, 1658, 1661, 1650, 1744, 1756, 1675, 1668, 1663, 1658, 1676, 1666, 1669, 1690, 1679, 1665, 1654, 1673, 1670, 1677, 1636, 1648, 1646, 1662, 1658, 1675, 1672, 1679, 1655, 1683, 1667, 1653, 1696, 1642, 1657, 1677, 1650, 1659, 1665, 1656, 1665, 1660, 1667, 1663, 1661, 1686, 1660, 1651, 1646, 1667, 1670, 1644, 1696, 1669, 1673, 1666, 1640, 1668, 1666, 1687, 1655, 1682, 1667, 1660, 1666, 1673, 1659, 1654, 1674, 1659, 1662, 1670, 1654, 1647, 1651, 1642, 1674, 1659, 1635, 1642, 1685, 1643, 1625, 1659, 1648, 1670, 1660, 1641, 1647, 1640, 1652, 1670, 1637, 1635, 1659, 1656, 1669, 1667, 1673, 1633, 1656, 1659, 1659, 1639, 1654, 1642, 1646, 1672, 1651, 1664, 1664, 1641, 1647, 1644, 1665, 1680, 1623, 1623, 1640, 1672, 1664, 1631, 1652, 1655, 1659, 1641, 1662, 1676, 1677, 1660, 1652, 1641, 1671, 1633, 1683, 1637, 1671, 1660, 1656, 1628, 1662, 1639, 1638, 1653, 1679, 1637, 1668, 1657, 1658, 1647, 1667, 1667, 1641, 1650, 1663, 1627, 1669, 1630, 1632, 1646, 1642, 1620, 1652, 1648, 1649, 1641, 1658, 1647, 1645, 1636, 1655, 1662, 1645, 1643, 1660, 1661, 1713, 1677, 1702, 1665, 1658, 1666, 1639, 1649, 1617, 1654, 1646, 1637, 1671, 1649, 1684, 1654, 1638, 1648, 1652, 1655, 1636, 1649, 1638, 1658, 1661, 1650, 1637, 1649, 1638, 1638, 1655, 1632, 1632, 1645, 1650, 1641, 1640, 1643, 1655, 1643, 1644, 1631, 1683, 1663, 1624, 1678, 1627, 1631, 1676, 1671, 1622, 1624, 1662, 1645, 1652, 1669, 1676, 1637, 1627, 1625, 1640, 1632, 1645, 1647, 1647, 1656, 1632, 1624, 1663, 1641, 1667, 1646, 1624, 1668, 1672, 1656, 1633, 1655, 1660, 1655, 1628, 1640, 1633, 1640, 1671, 1641, 1650, 1627, 1639, 1626, 1651, 1653, 1634, 1649, 1632, 1636, 1657, 1659, 1666, 1672, 1681, 1654, 1657, 1640, 1639, 1656, 1650, 1631, 1629, 1643, 1684, 1681, 1632, 1634, 1654, 1650, 1649, 1658, 1650, 1666, 1653, 1665, 1657],
      "WindowCenter": [373.0, 373.0, 371.0, 371.0, 371.0, 370.0, 371.0, 371.0, 372.0, 371.0, 371.0, 372.0, 372.0, 373.0, 373.0, 372.0, 371.0, 371.0, 370.0, 370.0, 370.0, 370.0, 370.0, 371.0, 372.0, 370.0, 369.0, 370.0, 370.0, 369.0, 370.0, 370.0, 370.0, 370.0, 371.0, 372.0, 372.0, 374.0, 373.0, 372.0, 372.0, 372.0, 371.0, 371.0, 370.0, 369.0, 368.0, 368.0, 367.0, 367.0, 367.0, 368.0, 368.0, 368.0, 370.0, 371.0, 371.0, 371.0, 371.0, 371.0, 371.0, 371.0, 371.0, 372.0, 373.0, 372.0, 371.0, 371.0, 371.0, 371.0, 371.0, 372.0, 372.0, 372.0, 371.0, 370.0, 370.0, 370.0, 370.0, 372.0, 372.0, 372.0, 372.0, 373.0, 371.0, 371.0, 371.0, 371.0, 371.0, 371.0, 372.0, 371.0, 371.0, 371.0, 371.0, 371.0, 372.0, 371.0, 371.0, 372.0, 371.0, 371.0, 372.0, 371.0, 371.0, 371.0, 372.0, 372.0, 373.0, 372.0, 371.0, 370.0, 370.0, 370.0, 370.0, 371.0, 372.0, 372.0, 372.0, 372.0, 371.0, 372.0, 373.0, 371.0, 372.0, 372.0, 371.0, 371.0, 370.0, 370.0, 370.0, 372.0, 372.0, 372.0, 371.0, 372.0, 371.0, 371.0, 371.0, 371.0, 371.0, 372.0, 372.0, 371.0, 371.0, 372.0, 371.0, 371.0, 371.0, 370.0, 371.0, 372.0, 372.0, 372.0, 371.0, 371.0, 371.0, 372.0, 372.0, 372.0, 372.0, 372.0, 371.0, 371.0, 371.0, 372.0, 373.0, 373.0, 373.0, 372.0, 372.0, 372.0, 373.0, 373.0, 373.0, 373.0, 372.0, 371.0, 372.0, 372.0, 371.0, 371.0, 372.0, 371.0, 372.0, 372.0, 371.0, 371.0, 370.0, 370.0, 371.0, 372.0, 373.0, 373.0, 372.0, 372.0, 371.0, 371.0, 372.0, 372.0, 371.0, 372.0, 372.0, 371.0, 371.0, 371.0, 370.0, 371.0, 371.0, 371.0, 371.0, 371.0, 371.0, 370.0, 370.0, 370.0, 372.0, 372.0, 372.0, 373.0, 374.0, 373.0, 373.0, 372.0, 371.0, 370.0, 370.0, 370.0, 372.0, 373.0, 374.0, 373.0, 372.0, 371.0, 370.0, 371.0, 371.0, 372.0, 373.0, 373.0, 372.0, 373.0, 372.0, 373.0, 373.0, 372.0, 371.0, 372.0, 371.0, 372.0, 373.0, 372.0, 372.0, 372.0, 372.0, 371.0, 371.0, 371.0, 370.0, 371.0, 370.0, 371.0, 371.0, 372.0, 373.0, 372.0, 371.0, 372.0, 371.0, 371.0, 371.0, 371.0, 372.0, 372.0, 371.0, 371.0, 371.0, 370.0, 370.0, 371.0, 371.0, 370.0, 370.0, 371.0, 371.0, 372.0, 372.0, 371.0, 370.0, 370.0, 370.0, 370.0, 371.0, 372.0, 371.0, 371.0, 371.0, 370.0, 371.0, 371.0, 370.0, 370.0, 370.0, 370.0, 370.0, 371.0, 372.0, 371.0, 370.0, 371.0, 370.0, 370.0, 371.0, 370.0, 370.0, 371.0, 372.0, 373.0, 371.0, 371.0, 371.0, 370.0, 370.0, 371.0, 371.0, 370.0, 371.0, 371.0, 372.0, 371.0],
