{
  "AcquisitionMatrixPE": 104,
  "AcquisitionNumber": 1,
  "AcquisitionTime": "10:32:9.337500",
  "BandwidthPerPixelPhaseEncode": 43.054,
  "BaseResolution": 104,
  "CoilString": "C:E1_2",
  "ConversionSoftware": "dcm2niix",
  "ConversionSoftwareVersion": "v1.0.20191031",
  "DerivedVendorReportedEchoSpacing": 0.000669999,
  "DeviceSerialNumber": "18932",
  "DwellTime": 2.8e-06,
  "EchoTime": 0.02,
  "EffectiveEchoSpacing": 0.000223333,
  "FlipAngle": 30,
  "ImageComments": "Unaliased_MB2_PE2",
  "ImageOrientationPatientDICOM": [1, 2e-16, 0, -2e-16, 0.965926, -0.258819],
  "ImageType": [
    "ORIGINAL",
    "PRIMARY",
    "M",
    "MB",
    "ND",
    "MOSAIC"
],
  "ImagingFrequency": 297.23,
  "InPlanePhaseEncodingDirectionDICOM": "COL",
  "InstitutionAddress": "Richmond_Street_North_1151_London_409EF2_Ontario_CA_N6A_5B7",
  "InstitutionName": "Robarts_Reserch_Institute",
  "InstitutionalDepartmentName": "Department",
  "MRAcquisitionType": "2D",
  "MagneticFieldStrength": 6.98,
  "Manufacturer": "Siemens",
  "ManufacturersModelName": "Investigational_Device_7T",
  "Modality": "MR",
  "MultibandAccelerationFactor": 2,
  "ParallelReductionFactorInPlane": 3,
  "PartialFourier": 0.875,
  "PatientPosition": "HFS",
  "PercentPhaseFOV": 100,
  "PhaseEncodingDirection": "j-",
  "PhaseEncodingSteps": 91,
  "PhaseResolution": 1,
  "PixelBandwidth": 1717,
  "ProcedureStepDescription": "Diedrichsen_SeqRep4",
  "ProtocolName": "mbep2d_bold_mb2_p3_AP_2iso",
  "PulseSequenceDetails": "%CustomerSeq%_cmrr_mbep2d_bold",
  "ReceiveCoilName": "CFMM_8Tx32Rx",
  "ReconMatrixPE": 104,
  "RefLinesPE": 36,
  "RepetitionTime": 1,
  "ScanOptions": "PFP_FS",
  "ScanningSequence": "EP",
  "SequenceName": "epfid2d1_104",
  "SequenceVariant": "SK_SS",
  "SeriesDescription": "mbep2d_bold_mb2_p3_AP_2iso",
  "SeriesNumber": 37,
  "ShimSetting": [-5, 1998, 309, 43, -98, -114, -302, -166],
  "SliceThickness": 2,
  "SliceTiming": [0, 0.2275, 0.4575, 0.685, 0.9125, 0.1375, 0.365, 0.5925, 0.8225, 0.045, 0.275, 0.5025, 0.73, 0.9575, 0.1825, 0.41, 0.64, 0.8675, 0.0925, 0.32, 0.5475, 0.775, 0, 0.2275, 0.4575, 0.685, 0.9125, 0.1375, 0.365, 0.5925, 0.8225, 0.045, 0.275, 0.5025, 0.73, 0.9575, 0.1825, 0.41, 0.64, 0.8675, 0.0925, 0.32, 0.5475, 0.775],
  "SoftwareVersions": "syngo_MR_B17",
  "SpacingBetweenSlices": 2,
  "StationName": "MASTER",
  "TaskName": "dsp",
  "TotalReadoutTime": 0.0230033,
  "TxRefAmp": 120,
  "dcmmeta_affine": [
    [-2.0, -4.000000067449534e-16, 1.035276159788667e-16, 103.27360534667969],
    [-4.000000067449534e-16, 1.9318516254425049, -0.517638087272644, -100.47244262695312],
    [0.0, 0.517638087272644, 1.9318516254425049, -65.80461883544922],
    [0.0, 0.0, 0.0, 1.0]
],
  "dcmmeta_reorient_transform": [
    [0.0, -1.0, 0.0, 103.0],
    [1.0, 0.0, 0.0, 0.0],
    [0.0, 0.0, 1.0, 0.0],
    [0.0, 0.0, 0.0, 1.0]
],
  "dcmmeta_shape": [104, 104, 44, 330],
  "dcmmeta_slice_dim": 2,
  "dcmmeta_version": 0.6,
  "global": {
    "const": {
      "AcquisitionMatrix": [104, 0, 0, 104],
      "AngioFlag": "N",
      "BitsAllocated": 16,
      "BitsStored": 12,
      "Columns": 728,
      "EchoNumbers": 1,
      "EchoTime": 20.0,
      "EchoTrainLength": 1,
      "FlipAngle": 30.0,
      "HighBit": 11,
      "ImageOrientationPatient": [1.0, 2e-16, 0.0, -2e-16, 0.9659258278573, -0.2588190392498],
      "ImagePositionPatient": [-727.27360773087, -701.24599295073, 149.01518168592],
      "ImageType": [
        "ORIGINAL",
        "PRIMARY",
        "M",
        "MB",
        "ND",
        "MOSAIC"
],
      "ImagedNucleus": "1H",
      "ImagingFrequency": 297.229898,
      "InPlanePhaseEncodingDirection": "COL",
      "MRAcquisitionType": "2D",
      "MagneticFieldStrength": 6.98,
      "Manufacturer": "SIEMENS",
      "ManufacturerModelName": "Investigational_Device_7T",
      "Modality": "MR",
      "NumberOfAverages": 1.0,
      "NumberOfPhaseEncodingSteps": 91,
      "PercentPhaseFieldOfView": 100.0,
      "PercentSampling": 100.0,
      "PerformedProcedureStepStartTime": "091301.203000",
      "PhotometricInterpretation": "MONOCHROME2",
      "PixelBandwidth": 1717.0,
      "PixelRepresentation": 0,
      "PixelSpacing": [2.0, 2.0],
      "ProtocolName": "mbep2d_bold_mb2_p3_AP 2iso",
      "RepetitionTime": 1000.0,
      "Rows": 728,
      "SAR": 0.0,
      "SamplesPerPixel": 1,
      "ScanOptions": [
        "PFP",
        "FS"
],
      "ScanningSequence": "EP",
      "SequenceName": "epfid2d1_104",
      "SequenceVariant": [
        "SK",
        "SS"
],
      "SeriesDescription": "mbep2d_bold_mb2_p3_AP 2iso",
      "SeriesNumber": 37,
      "SeriesTime": "103245.375000",
      "SliceLocation": -37.558201440006,
      "SliceThickness": 2.0,
      "SmallestImagePixelValue": 0,
      "SoftwareVersions": "syngo MR B17",
      "SpacingBetweenSlices": 2.0000000219488,
      "SpecificCharacterSet": "ISO_IR 100",
      "StudyID": "1",
      "StudyTime": "091301.140000",
      "TransmitCoilName": "CFMM_8Tx32Rx",
      "VariableFlipAngleFlag": "N",
      "WindowCenterWidthExplanation": "Algo1",
      "dBdt": 0.0},
    "slices": {}
  },
  "time": {
    "samples": {
      "AcquisitionNumber": [1, 2, 3, 4, 5, 6, 7, 8, 9, 10, 11, 12, 13, 14, 15, 16, 17, 18, 19, 20, 21, 22, 23, 24, 25, 26, 27, 28, 29, 30, 31, 32, 33, 34, 35, 36, 37, 38, 39, 40, 41, 42, 43, 44, 45, 46, 47, 48, 49, 50, 51, 52, 53, 54, 55, 56, 57, 58, 59, 60, 61, 62, 63, 64, 65, 66, 67, 68, 69, 70, 71, 72, 73, 74, 75, 76, 77, 78, 79, 80, 81, 82, 83, 84, 85, 86, 87, 88, 89, 90, 91, 92, 93, 94, 95, 96, 97, 98, 99, 100, 101, 102, 103, 104, 105, 106, 107, 108, 109, 110, 111, 112, 113, 114, 115, 116, 117, 118, 119, 120, 121, 122, 123, 124, 125, 126, 127, 128, 129, 130, 131, 132, 133, 134, 135, 136, 137, 138, 139, 140, 141, 142, 143, 144, 145, 146, 147, 148, 149, 150, 151, 152, 153, 154, 155, 156, 157, 158, 159, 160, 161, 162, 163, 164, 165, 166, 167, 168, 169, 170, 171, 172, 173, 174, 175, 176, 177, 178, 179, 180, 181, 182, 183, 184, 185, 186, 187, 188, 189, 190, 191, 192, 193, 194, 195, 196, 197, 198, 199, 200, 201, 202, 203, 204, 205, 206, 207, 208, 209, 210, 211, 212, 213, 214, 215, 216, 217, 218, 219, 220, 221, 222, 223, 224, 225, 226, 227, 228, 229, 230, 231, 232, 233, 234, 235, 236, 237, 238, 239, 240, 241, 242, 243, 244, 245, 246, 247, 248, 249, 250, 251, 252, 253, 254, 255, 256, 257, 258, 259, 260, 261, 262, 263, 264, 265, 266, 267, 268, 269, 270, 271, 272, 273, 274, 275, 276, 277, 278, 279, 280, 281, 282, 283, 284, 285, 286, 287, 288, 289, 290, 291, 292, 293, 294, 295, 296, 297, 298, 299, 300, 301, 302, 303, 304, 305, 306, 307, 308, 309, 310, 311, 312, 313, 314, 315, 316, 317, 318, 319, 320, 321, 322, 323, 324, 325, 326, 327, 328, 329, 330],
      "AcquisitionTime": ["103209.337500", "103210.342500", "103211.345000", "103212.350000", "103213.355000", "103214.357500", "103215.362500", "103216.365000", "103217.370000", "103218.375000", "103219.377500", "103220.382500", "103221.385000", "103222.390000", "103223.395000", "103224.397500", "103225.402500", "103226.407500", "103227.410000", "103228.415000", "103229.417500", "103230.422500", "103231.427500", "103232.430000", "103233.435000", "103234.437500", "103235.442500", "103236.447500", "103237.450000", "103238.455000", "103239.457500", "103240.462500", "103241.467500", "103242.470000", "103243.475000", "103244.477500", "103245.482500", "103246.487500", "103247.490000", "103248.495000", "103249.497500", "103250.502500", "103251.507500", "103252.510000", "103253.515000", "103254.520000", "103255.522500", "103256.527500", "103257.530000", "103258.535000", "103259.540000", "103300.542500", "103301.547500", "103302.550000", "103303.555000", "103304.560000", "103305.562500", "103306.567500", "103307.570000", "103308.575000", "103309.580000", "103310.582500", "103311.587500", "103312.590000", "103313.595000", "103314.600000", "103315.602500", "103316.607500", "103317.610000", "103318.615000", "103319.620000", "103320.622500", "103321.627500", "103322.630000", "103323.635000", "103324.640000", "103325.642500", "103326.647500", "103327.652500", "103328.655000", "103329.660000", "103330.662500", "103331.667500", "103332.672500", "103333.675000", "103334.680000", "103335.682500", "103336.687500", "103337.692500", "103338.695000", "103339.700000", "103340.702500", "103341.707500", "103342.712500", "103343.715000", "103344.720000", "103345.722500", "103346.727500", "103347.732500", "103348.735000", "103349.740000", "103350.742500", "103351.747500", "103352.752500", "103353.755000", "103354.760000", "103355.765000", "103356.767500", "103357.772500", "103358.775000", "103359.780000", "103400.785000", "103401.787500", "103402.792500", "103403.795000", "103404.800000", "103405.805000", "103406.807500", "103407.812500", "103408.815000", "103409.820000", "103410.825000", "103411.827500", "103412.832500", "103413.835000", "103414.840000", "103415.845000", "103416.847500", "103417.852500", "103418.855000", "103419.860000", "103420.865000", "103421.867500", "103422.872500", "103423.875000", "103424.880000", "103425.885000", "103426.887500", "103427.892500", "103428.897500", "103429.900000", "103430.905000", "103431.907500", "103432.912500", "103433.917500", "103434.920000", "103435.925000", "103436.927500", "103437.932500", "103438.937500", "103439.940000", "103440.945000", "103441.947500", "103442.952500", "103443.957500", "103444.960000", "103445.965000", "103446.967500", "103447.972500", "103448.977500", "103449.980000", "103450.985000", "103451.987500", "103452.992500", "103453.997500", "103455.000000", "103456.005000", "103457.007500", "103458.012500", "103459.017500", "103500.020000", "103501.025000", "103502.030000", "103503.032500", "103504.037500", "103505.040000", "103506.045000", "103507.050000", "103508.052500", "103509.057500", "103510.060000", "103511.065000", "103512.070000", "103513.072500", "103514.077500", "103515.080000", "103516.085000", "103517.090000", "103518.092500", "103519.097500", "103520.100000", "103521.105000", "103522.110000", "103523.112500", "103524.117500", "103525.120000", "103526.125000", "103527.130000", "103528.132500", "103529.137500", "103530.142500", "103531.145000", "103532.150000", "103533.152500", "103534.157500", "103535.162500", "103536.165000", "103537.170000", "103538.172500", "103539.177500", "103540.182500", "103541.185000", "103542.190000", "103543.192500", "103544.197500", "103545.202500", "103546.205000", "103547.210000", "103548.212500", "103549.217500", "103550.222500", "103551.225000", "103552.230000", "103553.232500", "103554.237500", "103555.242500", "103556.245000", "103557.250000", "103558.252500", "103559.257500", "103600.262500", "103601.265000", "103602.270000", "103603.275000", "103604.277500", "103605.282500", "103606.285000", "103607.290000", "103608.295000", "103609.297500", "103610.302500", "103611.305000", "103612.310000", "103613.315000", "103614.317500", "103615.322500", "103616.325000", "103617.330000", "103618.335000", "103619.337500", "103620.342500", "103621.345000", "103622.350000", "103623.355000", "103624.357500", "103625.362500", "103626.365000", "103627.370000", "103628.375000", "103629.377500", "103630.382500", "103631.385000", "103632.390000", "103633.395000", "103634.397500", "103635.402500", "103636.407500", "103637.410000", "103638.415000", "103639.417500", "103640.422500", "103641.427500", "103642.430000", "103643.435000", "103644.437500", "103645.442500", "103646.447500", "103647.450000", "103648.455000", "103649.457500", "103650.462500", "103651.467500", "103652.470000", "103653.475000", "103654.477500", "103655.482500", "103656.487500", "103657.490000", "103658.495000", "103659.497500", "103700.502500", "103701.507500", "103702.510000", "103703.515000", "103704.520000", "103705.522500", "103706.527500", "103707.530000", "103708.535000", "103709.540000", "103710.542500", "103711.547500", "103712.550000", "103713.555000", "103714.560000", "103715.562500", "103716.567500", "103717.570000", "103718.575000", "103719.580000", "103720.582500", "103721.587500", "103722.590000", "103723.595000", "103724.600000", "103725.602500", "103726.607500", "103727.610000", "103728.615000", "103729.620000", "103730.622500", "103731.627500", "103732.630000", "103733.635000", "103734.640000", "103735.642500", "103736.647500", "103737.652500", "103738.655000", "103739.660000"],
      "ContentTime": ["103245.375000", "103245.390000", "103245.390000", "103245.390000", "103245.390000", "103245.390000", "103245.437000", "103245.437000", "103245.453000", "103245.453000", "103245.453000", "103245.453000", "103245.453000", "103245.453000", "103245.468000", "103245.468000", "103245.468000", "103245.468000", "103245.468000", "103245.468000", "103245.468000", "103245.484000", "103245.484000", "103245.484000", "103245.484000", "103245.484000", "103245.484000", "103245.500000", "103245.500000", "103245.500000", "103245.500000", "103245.500000", "103245.500000", "103245.500000", "103245.515000", "103305.343000", "103305.343000", "103305.343000", "103305.343000", "103305.343000", "103305.359000", "103305.359000", "103305.359000", "103305.359000", "103305.359000", "103305.359000", "103305.359000", "103305.375000", "103305.375000", "103305.375000", "103305.375000", "103305.375000", "103305.375000", "103305.390000", "103305.390000", "103325.343000", "103325.343000", "103325.343000", "103325.343000", "103325.359000", "103325.359000", "103325.359000", "103325.375000", "103325.375000", "103325.375000", "103325.375000", "103325.375000", "103325.375000", "103325.390000", "103325.390000", "103325.390000", "103325.390000", "103325.390000", "103325.390000", "103325.390000", "103345.343000", "103345.343000", "103345.343000", "103345.343000", "103345.343000", "103345.359000", "103345.359000", "103345.359000", "103345.359000", "103345.359000", "103345.359000", "103345.359000", "103345.375000", "103345.375000", "103345.375000", "103345.375000", "103345.375000", "103345.375000", "103345.375000", "103345.375000", "103405.343000", "103405.343000", "103405.343000", "103405.343000", "103405.343000", "103405.359000", "103405.359000", "103405.359000", "103405.359000", "103405.375000", "103405.375000", "103405.375000", "103405.375000", "103405.375000", "103405.375000", "103405.375000", "103405.390000", "103405.390000", "103405.390000", "103405.390000", "103425.343000", "103425.343000", "103425.343000", "103425.343000", "103425.343000", "103425.359000", "103425.359000", "103425.359000", "103425.359000", "103425.359000", "103425.359000", "103425.359000", "103425.375000", "103425.375000", "103425.375000", "103425.375000", "103425.375000", "103425.390000", "103425.390000", "103425.390000", "103445.343000", "103445.343000", "103445.343000", "103445.343000", "103445.359000", "103445.359000", "103445.359000", "103445.375000", "103445.375000", "103445.375000", "103445.375000", "103445.375000", "103445.375000", "103445.375000", "103445.390000", "103445.390000", "103445.390000", "103445.390000", "103445.390000", "103445.390000", "103505.343000", "103505.343000", "103505.343000", "103505.343000", "103505.343000", "103505.359000", "103505.359000", "103505.359000", "103505.359000", "103505.359000", "103505.359000", "103505.359000", "103505.375000", "103505.375000", "103505.375000", "103505.375000", "103505.375000", "103505.375000", "103505.375000", "103505.375000", "103525.343000", "103525.343000", "103525.343000", "103525.343000", "103525.343000", "103525.359000", "103525.359000", "103525.359000", "103525.359000", "103525.359000", "103525.375000", "103525.375000", "103525.375000", "103525.375000", "103525.390000", "103525.390000", "103525.390000", "103525.390000", "103525.500000", "103525.500000", "103545.343000", "103545.343000", "103545.343000", "103545.359000", "103545.359000", "103545.359000", "103545.359000", "103545.359000", "103545.359000", "103545.359000", "103545.375000", "103545.375000", "103545.375000", "103545.375000", "103545.375000", "103545.375000", "103545.375000", "103545.375000", "103545.390000", "103545.390000", "103605.343000", "103605.343000", "103605.343000", "103605.343000", "103605.343000", "103605.359000", "103605.359000", "103605.359000", "103605.359000", "103605.359000", "103605.359000", "103605.359000", "103605.375000", "103605.375000", "103605.375000", "103605.375000", "103605.375000", "103605.375000", "103605.375000", "103605.390000", "103625.343000", "103625.343000", "103625.343000", "103625.343000", "103625.343000", "103625.359000", "103625.359000", "103625.359000", "103625.375000", "103625.375000", "103625.375000", "103625.375000", "103625.375000", "103625.375000", "103625.375000", "103625.390000", "103625.390000", "103625.390000", "103625.390000", "103625.390000", "103645.343000", "103645.343000", "103645.343000", "103645.343000", "103645.343000", "103645.359000", "103645.359000", "103645.359000", "103645.359000", "103645.359000", "103645.375000", "103645.375000", "103645.375000", "103645.375000", "103645.375000", "103645.375000", "103645.375000", "103645.390000", "103645.390000", "103645.390000", "103705.343000", "103705.343000", "103705.343000", "103705.343000", "103705.343000", "103705.359000", "103705.359000", "103705.359000", "103705.359000", "103705.359000", "103705.359000", "103705.359000", "103705.375000", "103705.375000", "103705.375000", "103705.375000", "103705.375000", "103705.375000", "103705.375000", "103705.390000", "103725.343000", "103725.343000", "103725.343000", "103725.343000", "103725.343000", "103725.359000", "103725.359000", "103725.359000", "103725.359000", "103725.359000", "103725.359000", "103725.375000", "103725.375000", "103725.375000", "103725.375000", "103725.375000", "103725.375000", "103725.375000", "103725.390000", "103725.390000", "103745.000000", "103745.000000", "103745.000000", "103745.000000", "103745.000000", "103745.000000", "103745.000000", "103745.015000", "103745.015000", "103745.015000", "103745.015000", "103745.015000", "103745.015000", "103745.015000", "103745.031000"],
      "InstanceCreationTime": ["103245.375000", "103245.390000", "103245.390000", "103245.390000", "103245.390000", "103245.390000", "103245.437000", "103245.437000", "103245.453000", "103245.453000", "103245.453000", "103245.453000", "103245.453000", "103245.453000", "103245.468000", "103245.468000", "103245.468000", "103245.468000", "103245.468000", "103245.468000", "103245.468000", "103245.484000", "103245.484000", "103245.484000", "103245.484000", "103245.484000", "103245.484000", "103245.500000", "103245.500000", "103245.500000", "103245.500000", "103245.500000", "103245.500000", "103245.500000", "103245.515000", "103305.343000", "103305.343000", "103305.343000", "103305.343000", "103305.343000", "103305.359000", "103305.359000", "103305.359000", "103305.359000", "103305.359000", "103305.359000", "103305.359000", "103305.375000", "103305.375000", "103305.375000", "103305.375000", "103305.375000", "103305.375000", "103305.390000", "103305.390000", "103325.343000", "103325.343000", "103325.343000", "103325.343000", "103325.359000", "103325.359000", "103325.359000", "103325.375000", "103325.375000", "103325.375000", "103325.375000", "103325.375000", "103325.375000", "103325.390000", "103325.390000", "103325.390000", "103325.390000", "103325.390000", "103325.390000", "103325.390000", "103345.343000", "103345.343000", "103345.343000", "103345.343000", "103345.343000", "103345.359000", "103345.359000", "103345.359000", "103345.359000", "103345.359000", "103345.359000", "103345.359000", "103345.375000", "103345.375000", "103345.375000", "103345.375000", "103345.375000", "103345.375000", "103345.375000", "103345.375000", "103405.343000", "103405.343000", "103405.343000", "103405.343000", "103405.343000", "103405.359000", "103405.359000", "103405.359000", "103405.359000", "103405.375000", "103405.375000", "103405.375000", "103405.375000", "103405.375000", "103405.375000", "103405.375000", "103405.390000", "103405.390000", "103405.390000", "103405.390000", "103425.343000", "103425.343000", "103425.343000", "103425.343000", "103425.343000", "103425.359000", "103425.359000", "103425.359000", "103425.359000", "103425.359000", "103425.359000", "103425.359000", "103425.375000", "103425.375000", "103425.375000", "103425.375000", "103425.375000", "103425.390000", "103425.390000", "103425.390000", "103445.343000", "103445.343000", "103445.343000", "103445.343000", "103445.359000", "103445.359000", "103445.359000", "103445.375000", "103445.375000", "103445.375000", "103445.375000", "103445.375000", "103445.375000", "103445.375000", "103445.390000", "103445.390000", "103445.390000", "103445.390000", "103445.390000", "103445.390000", "103505.343000", "103505.343000", "103505.343000", "103505.343000", "103505.343000", "103505.359000", "103505.359000", "103505.359000", "103505.359000", "103505.359000", "103505.359000", "103505.359000", "103505.375000", "103505.375000", "103505.375000", "103505.375000", "103505.375000", "103505.375000", "103505.375000", "103505.375000", "103525.343000", "103525.343000", "103525.343000", "103525.343000", "103525.343000", "103525.359000", "103525.359000", "103525.359000", "103525.359000", "103525.359000", "103525.375000", "103525.375000", "103525.375000", "103525.375000", "103525.390000", "103525.390000", "103525.390000", "103525.390000", "103525.500000", "103525.500000", "103545.343000", "103545.343000", "103545.343000", "103545.359000", "103545.359000", "103545.359000", "103545.359000", "103545.359000", "103545.359000", "103545.359000", "103545.375000", "103545.375000", "103545.375000", "103545.375000", "103545.375000", "103545.375000", "103545.375000", "103545.375000", "103545.390000", "103545.390000", "103605.343000", "103605.343000", "103605.343000", "103605.343000", "103605.343000", "103605.359000", "103605.359000", "103605.359000", "103605.359000", "103605.359000", "103605.359000", "103605.359000", "103605.375000", "103605.375000", "103605.375000", "103605.375000", "103605.375000", "103605.375000", "103605.375000", "103605.390000", "103625.343000", "103625.343000", "103625.343000", "103625.343000", "103625.343000", "103625.359000", "103625.359000", "103625.359000", "103625.375000", "103625.375000", "103625.375000", "103625.375000", "103625.375000", "103625.375000", "103625.375000", "103625.390000", "103625.390000", "103625.390000", "103625.390000", "103625.390000", "103645.343000", "103645.343000", "103645.343000", "103645.343000", "103645.343000", "103645.359000", "103645.359000", "103645.359000", "103645.359000", "103645.359000", "103645.375000", "103645.375000", "103645.375000", "103645.375000", "103645.375000", "103645.375000", "103645.375000", "103645.390000", "103645.390000", "103645.390000", "103705.343000", "103705.343000", "103705.343000", "103705.343000", "103705.343000", "103705.359000", "103705.359000", "103705.359000", "103705.359000", "103705.359000", "103705.359000", "103705.359000", "103705.375000", "103705.375000", "103705.375000", "103705.375000", "103705.375000", "103705.375000", "103705.375000", "103705.390000", "103725.343000", "103725.343000", "103725.343000", "103725.343000", "103725.343000", "103725.359000", "103725.359000", "103725.359000", "103725.359000", "103725.359000", "103725.359000", "103725.375000", "103725.375000", "103725.375000", "103725.375000", "103725.375000", "103725.375000", "103725.375000", "103725.390000", "103725.390000", "103745.000000", "103745.000000", "103745.000000", "103745.000000", "103745.000000", "103745.000000", "103745.000000", "103745.015000", "103745.015000", "103745.015000", "103745.015000", "103745.015000", "103745.015000", "103745.015000", "103745.031000"],
      "InstanceNumber": [1, 2, 3, 4, 5, 6, 7, 8, 9, 10, 11, 12, 13, 14, 15, 16, 17, 18, 19, 20, 21, 22, 23, 24, 25, 26, 27, 28, 29, 30, 31, 32, 33, 34, 35, 36, 37, 38, 39, 40, 41, 42, 43, 44, 45, 46, 47, 48, 49, 50, 51, 52, 53, 54, 55, 56, 57, 58, 59, 60, 61, 62, 63, 64, 65, 66, 67, 68, 69, 70, 71, 72, 73, 74, 75, 76, 77, 78, 79, 80, 81, 82, 83, 84, 85, 86, 87, 88, 89, 90, 91, 92, 93, 94, 95, 96, 97, 98, 99, 100, 101, 102, 103, 104, 105, 106, 107, 108, 109, 110, 111, 112, 113, 114, 115, 116, 117, 118, 119, 120, 121, 122, 123, 124, 125, 126, 127, 128, 129, 130, 131, 132, 133, 134, 135, 136, 137, 138, 139, 140, 141, 142, 143, 144, 145, 146, 147, 148, 149, 150, 151, 152, 153, 154, 155, 156, 157, 158, 159, 160, 161, 162, 163, 164, 165, 166, 167, 168, 169, 170, 171, 172, 173, 174, 175, 176, 177, 178, 179, 180, 181, 182, 183, 184, 185, 186, 187, 188, 189, 190, 191, 192, 193, 194, 195, 196, 197, 198, 199, 200, 201, 202, 203, 204, 205, 206, 207, 208, 209, 210, 211, 212, 213, 214, 215, 216, 217, 218, 219, 220, 221, 222, 223, 224, 225, 226, 227, 228, 229, 230, 231, 232, 233, 234, 235, 236, 237, 238, 239, 240, 241, 242, 243, 244, 245, 246, 247, 248, 249, 250, 251, 252, 253, 254, 255, 256, 257, 258, 259, 260, 261, 262, 263, 264, 265, 266, 267, 268, 269, 270, 271, 272, 273, 274, 275, 276, 277, 278, 279, 280, 281, 282, 283, 284, 285, 286, 287, 288, 289, 290, 291, 292, 293, 294, 295, 296, 297, 298, 299, 300, 301, 302, 303, 304, 305, 306, 307, 308, 309, 310, 311, 312, 313, 314, 315, 316, 317, 318, 319, 320, 321, 322, 323, 324, 325, 326, 327, 328, 329, 330],
      "LargestImagePixelValue": [1637, 1651, 1605, 1647, 1640, 1633, 1627, 1621, 1611, 1603, 1642, 1614, 1604, 1623, 1623, 1628, 1626, 1616, 1626, 1638, 1651, 1633, 1611, 1620, 1644, 1627, 1647, 1639, 1625, 1640, 1646, 1652, 1648, 1626, 1651, 1648, 1663, 1641, 1634, 1665, 1629, 1643, 1638, 1615, 1634, 1672, 1631, 1631, 1642, 1662, 1646, 1670, 1646, 1639, 1654, 1637, 1660, 1655, 1660, 1653, 1644, 1695, 1645, 1675, 1632, 1673, 1656, 1642, 1657, 1653, 1677, 1660, 1641, 1635, 1639, 1642, 1654, 1652, 1669, 1649, 1664, 1680, 1637, 1637, 1659, 1648, 1670, 1649, 1661, 1661, 1653, 1661, 1677, 1652, 1662, 1680, 1653, 1640, 1671, 1650, 1651, 1648, 1653, 1690, 1633, 1637, 1628, 1649, 1655, 1625, 1655, 1645, 1654, 1648, 1647, 1639, 1629, 1646, 1650, 1653, 1640, 1661, 1648, 1644, 1625, 1664, 1679, 1630, 1649, 1644, 1636, 1664, 1638, 1643, 1631, 1638, 1660, 1651, 1636, 1653, 1616, 1642, 1641, 1632, 1650, 1644, 1645, 1645, 1652, 1646, 1634, 1636, 1651, 1666, 1634, 1675, 1654, 1646, 1662, 1648, 1636, 1620, 1656, 1648, 1643, 1660, 1644, 1644, 1650, 1623, 1651, 1640, 1644, 1634, 1645, 1656, 1659, 1675, 1655, 1632, 1686, 1617, 1604, 1595, 1607, 1642, 1620, 1600, 1652, 1653, 1668, 1682, 1673, 1637, 1673, 1666, 1663, 1651, 1684, 1672, 1701, 1660, 1670, 1673, 1670, 1651, 1679, 1635, 1643, 1643, 1641, 1671, 1628, 1660, 1634, 1639, 1656, 1648, 1659, 1651, 1640, 1643, 1660, 1675, 1653, 1653, 1642, 1677, 1641, 1651, 1663, 1639, 1644, 1643, 1634, 1645, 1636, 1645, 1675, 1642, 1648, 1669, 1622, 1638, 1656, 1651, 1634, 1665, 1660, 1654, 1698, 1637, 1667, 1685, 1668, 1668, 1688, 1642, 1651, 1639, 1639, 1671, 1665, 1659, 1676, 1659, 1631, 1674, 1669, 1650, 1702, 1689, 1653, 1697, 1667, 1658, 1636, 1628, 1672, 1654, 1651, 1653, 1659, 1653, 1646, 1662, 1650, 1649, 1655, 1673, 1648, 1630, 1658, 1668, 1644, 1640, 1663, 1648, 1656, 1676, 1645, 1675, 1649, 1674, 1638, 1623, 1645, 1638, 1668, 1644, 1639, 1649, 1656, 1641, 1647, 1630, 1661, 1639, 1645, 1672, 1653, 1640, 1691, 1678, 1640, 1656, 1687, 1623, 1655, 1668],
      "WindowCenter": [369.0, 369.0, 368.0, 368.0, 368.0, 367.0, 367.0, 366.0, 367.0, 366.0, 366.0, 367.0, 366.0, 367.0, 367.0, 367.0, 366.0, 367.0, 368.0, 368.0, 369.0, 368.0, 368.0, 367.0, 367.0, 366.0, 367.0, 368.0, 368.0, 368.0, 368.0, 368.0, 368.0, 368.0, 368.0, 367.0, 368.0, 368.0, 368.0, 368.0, 368.0, 368.0, 368.0, 368.0, 368.0, 368.0, 368.0, 368.0, 368.0, 369.0, 368.0, 368.0, 367.0, 367.0, 366.0, 366.0, 366.0, 367.0, 368.0, 368.0, 368.0, 368.0, 368.0, 366.0, 366.0, 367.0, 366.0, 366.0, 367.0, 367.0, 367.0, 367.0, 366.0, 366.0, 367.0, 367.0, 367.0, 367.0, 367.0, 366.0, 367.0, 367.0, 366.0, 365.0, 366.0, 367.0, 367.0, 367.0, 368.0, 368.0, 367.0, 367.0, 366.0, 366.0, 367.0, 366.0, 366.0, 367.0, 367.0, 368.0, 368.0, 368.0, 367.0, 367.0, 367.0, 367.0, 367.0, 368.0, 369.0, 367.0, 368.0, 367.0, 367.0, 367.0, 367.0, 367.0, 367.0, 367.0, 368.0, 367.0, 366.0, 365.0, 364.0, 366.0, 367.0, 369.0, 369.0, 368.0, 367.0, 366.0, 367.0, 366.0, 366.0, 367.0, 367.0, 367.0, 367.0, 367.0, 366.0, 366.0, 365.0, 365.0, 366.0, 366.0, 366.0, 367.0, 367.0, 367.0, 367.0, 367.0, 367.0, 367.0, 367.0, 367.0, 368.0, 367.0, 368.0, 367.0, 367.0, 366.0, 366.0, 365.0, 366.0, 366.0, 366.0, 366.0, 366.0, 366.0, 366.0, 366.0, 367.0, 367.0, 366.0, 366.0, 366.0, 366.0, 366.0, 366.0, 367.0, 367.0, 367.0, 368.0, 366.0, 366.0, 367.0, 367.0, 366.0, 365.0, 366.0, 367.0, 367.0, 367.0, 367.0, 368.0, 367.0, 366.0, 367.0, 367.0, 367.0, 368.0, 368.0, 368.0, 369.0, 369.0, 368.0, 367.0, 368.0, 367.0, 367.0, 368.0, 369.0, 368.0, 367.0, 366.0, 365.0, 365.0, 366.0, 365.0, 366.0, 366.0, 366.0, 365.0, 365.0, 366.0, 366.0, 365.0, 365.0, 366.0, 365.0, 364.0, 365.0, 365.0, 364.0, 365.0, 366.0, 367.0, 367.0, 368.0, 367.0, 366.0, 366.0, 367.0, 367.0, 367.0, 367.0, 367.0, 367.0, 367.0, 367.0, 367.0, 366.0, 367.0, 366.0, 366.0, 365.0, 364.0, 364.0, 365.0, 365.0, 365.0, 366.0, 367.0, 367.0, 367.0, 366.0, 366.0, 366.0, 366.0, 366.0, 367.0, 367.0, 367.0, 367.0, 367.0, 367.0, 368.0, 368.0, 368.0, 367.0, 368.0, 369.0, 368.0, 367.0, 367.0, 366.0, 367.0, 367.0, 367.0, 367.0, 367.0, 367.0, 366.0, 366.0, 367.0, 366.0, 367.0, 368.0, 367.0, 367.0, 368.0, 367.0, 367.0, 367.0, 367.0, 366.0, 365.0, 367.0, 366.0, 367.0, 367.0, 367.0, 367.0, 368.0, 367.0, 367.0, 368.0, 367.0, 366.0, 367.0, 367.0, 367.0, 368.0, 367.0, 366.0, 366.0, 366.0, 366.0, 367.0, 367.0, 367.0],
