{
  "AcquisitionMatrixPE": 104,
  "AcquisitionNumber": 1,
  "AcquisitionTime": "09:34:42.057500",
  "BandwidthPerPixelPhaseEncode": 43.054,
  "BaseResolution": 104,
  "CoilString": "C:E1_2",
  "ConversionSoftware": "dcm2niix",
  "ConversionSoftwareVersion": "v1.0.20191031",
  "DerivedVendorReportedEchoSpacing": 0.000669999,
  "DeviceSerialNumber": "18932",
  "DwellTime": 2.8e-06,
  "EchoTime": 0.02,
  "EffectiveEchoSpacing": 0.000223333,
  "FlipAngle": 30,
  "ImageComments": "Unaliased_MB2_PE2",
  "ImageOrientationPatientDICOM": [1, 2e-16, 0, -2e-16, 0.965926, -0.258819],
  "ImageType": [
    "ORIGINAL",
    "PRIMARY",
    "M",
    "MB",
    "ND",
    "MOSAIC"
],
  "ImagingFrequency": 297.23,
  "InPlanePhaseEncodingDirectionDICOM": "COL",
  "InstitutionAddress": "Richmond_Street_North_1151_London_409EF2_Ontario_CA_N6A_5B7",
  "InstitutionName": "Robarts_Reserch_Institute",
  "InstitutionalDepartmentName": "Department",
  "MRAcquisitionType": "2D",
  "MagneticFieldStrength": 6.98,
  "Manufacturer": "Siemens",
  "ManufacturersModelName": "Investigational_Device_7T",
  "Modality": "MR",
  "MultibandAccelerationFactor": 2,
  "ParallelReductionFactorInPlane": 3,
  "PartialFourier": 0.875,
  "PatientPosition": "HFS",
  "PercentPhaseFOV": 100,
  "PhaseEncodingDirection": "j-",
  "PhaseEncodingSteps": 91,
  "PhaseResolution": 1,
  "PixelBandwidth": 1717,
  "ProcedureStepDescription": "Diedrichsen_SeqRep4",
  "ProtocolName": "mbep2d_bold_mb2_p3_AP_2iso",
  "PulseSequenceDetails": "%CustomerSeq%_cmrr_mbep2d_bold",
  "ReceiveCoilName": "CFMM_8Tx32Rx",
  "ReconMatrixPE": 104,
  "RefLinesPE": 36,
  "RepetitionTime": 1,
  "ScanOptions": "PFP_FS",
  "ScanningSequence": "EP",
  "SequenceName": "epfid2d1_104",
  "SequenceVariant": "SK_SS",
  "SeriesDescription": "mbep2d_bold_mb2_p3_AP_2iso",
  "SeriesNumber": 16,
  "ShimSetting": [-5, 1998, 309, 43, -98, -114, -302, -166],
  "SliceThickness": 2,
  "SliceTiming": [0, 0.2275, 0.4575, 0.685, 0.9125, 0.1375, 0.365, 0.5925, 0.8225, 0.045, 0.275, 0.5025, 0.73, 0.9575, 0.1825, 0.41, 0.64, 0.8675, 0.0925, 0.32, 0.5475, 0.775, 0, 0.2275, 0.4575, 0.685, 0.9125, 0.1375, 0.365, 0.5925, 0.8225, 0.045, 0.275, 0.5025, 0.73, 0.9575, 0.1825, 0.41, 0.64, 0.8675, 0.0925, 0.32, 0.5475, 0.775],
  "SoftwareVersions": "syngo_MR_B17",
  "SpacingBetweenSlices": 2,
  "StationName": "MASTER",
  "TaskName": "dsp",
  "TotalReadoutTime": 0.0230033,
  "TxRefAmp": 120,
  "dcmmeta_affine": [
    [-2.0, -4.000000067449534e-16, 1.035276159788667e-16, 103.27360534667969],
    [-4.000000067449534e-16, 1.9318516254425049, -0.517638087272644, -100.47244262695312],
    [0.0, 0.517638087272644, 1.9318516254425049, -65.80461883544922],
    [0.0, 0.0, 0.0, 1.0]
],
  "dcmmeta_reorient_transform": [
    [0.0, -1.0, 0.0, 103.0],
    [1.0, 0.0, 0.0, 0.0],
    [0.0, 0.0, 1.0, 0.0],
    [0.0, 0.0, 0.0, 1.0]
],
  "dcmmeta_shape": [104, 104, 44, 330],
  "dcmmeta_slice_dim": 2,
  "dcmmeta_version": 0.6,
  "global": {
    "const": {
      "AcquisitionMatrix": [104, 0, 0, 104],
      "AngioFlag": "N",
      "BitsAllocated": 16,
      "BitsStored": 12,
      "Columns": 728,
      "EchoNumbers": 1,
      "EchoTime": 20.0,
      "EchoTrainLength": 1,
      "FlipAngle": 30.0,
      "HighBit": 11,
      "ImageOrientationPatient": [1.0, 2e-16, 0.0, -2e-16, 0.9659258278573, -0.2588190392498],
      "ImagePositionPatient": [-727.27360773087, -701.24599295073, 149.01518168592],
      "ImageType": [
        "ORIGINAL",
        "PRIMARY",
        "M",
        "MB",
        "ND",
        "MOSAIC"
],
      "ImagedNucleus": "1H",
      "ImagingFrequency": 297.229856,
      "InPlanePhaseEncodingDirection": "COL",
      "MRAcquisitionType": "2D",
      "MagneticFieldStrength": 6.98,
      "Manufacturer": "SIEMENS",
      "ManufacturerModelName": "Investigational_Device_7T",
      "Modality": "MR",
      "NumberOfAverages": 1.0,
      "NumberOfPhaseEncodingSteps": 91,
      "PercentPhaseFieldOfView": 100.0,
      "PercentSampling": 100.0,
      "PerformedProcedureStepStartTime": "091301.203000",
      "PhotometricInterpretation": "MONOCHROME2",
      "PixelBandwidth": 1717.0,
      "PixelRepresentation": 0,
      "PixelSpacing": [2.0, 2.0],
      "ProtocolName": "mbep2d_bold_mb2_p3_AP 2iso",
      "RepetitionTime": 1000.0,
      "Rows": 728,
      "SAR": 0.0,
      "SamplesPerPixel": 1,
      "ScanOptions": [
        "PFP",
        "FS"
],
      "ScanningSequence": "EP",
      "SequenceName": "epfid2d1_104",
      "SequenceVariant": [
        "SK",
        "SS"
],
      "SeriesDescription": "mbep2d_bold_mb2_p3_AP 2iso",
      "SeriesNumber": 16,
      "SeriesTime": "093505.375000",
      "SliceLocation": -37.558201440006,
      "SliceThickness": 2.0,
      "SmallestImagePixelValue": 0,
      "SoftwareVersions": "syngo MR B17",
      "SpacingBetweenSlices": 2.0000000219488,
      "SpecificCharacterSet": "ISO_IR 100",
      "StudyID": "1",
      "StudyTime": "091301.140000",
      "TransmitCoilName": "CFMM_8Tx32Rx",
      "VariableFlipAngleFlag": "N",
      "WindowCenterWidthExplanation": "Algo1",
      "dBdt": 0.0},
    "slices": {}
  },
  "time": {
    "samples": {
      "AcquisitionNumber": [1, 2, 3, 4, 5, 6, 7, 8, 9, 10, 11, 12, 13, 14, 15, 16, 17, 18, 19, 20, 21, 22, 23, 24, 25, 26, 27, 28, 29, 30, 31, 32, 33, 34, 35, 36, 37, 38, 39, 40, 41, 42, 43, 44, 45, 46, 47, 48, 49, 50, 51, 52, 53, 54, 55, 56, 57, 58, 59, 60, 61, 62, 63, 64, 65, 66, 67, 68, 69, 70, 71, 72, 73, 74, 75, 76, 77, 78, 79, 80, 81, 82, 83, 84, 85, 86, 87, 88, 89, 90, 91, 92, 93, 94, 95, 96, 97, 98, 99, 100, 101, 102, 103, 104, 105, 106, 107, 108, 109, 110, 111, 112, 113, 114, 115, 116, 117, 118, 119, 120, 121, 122, 123, 124, 125, 126, 127, 128, 129, 130, 131, 132, 133, 134, 135, 136, 137, 138, 139, 140, 141, 142, 143, 144, 145, 146, 147, 148, 149, 150, 151, 152, 153, 154, 155, 156, 157, 158, 159, 160, 161, 162, 163, 164, 165, 166, 167, 168, 169, 170, 171, 172, 173, 174, 175, 176, 177, 178, 179, 180, 181, 182, 183, 184, 185, 186, 187, 188, 189, 190, 191, 192, 193, 194, 195, 196, 197, 198, 199, 200, 201, 202, 203, 204, 205, 206, 207, 208, 209, 210, 211, 212, 213, 214, 215, 216, 217, 218, 219, 220, 221, 222, 223, 224, 225, 226, 227, 228, 229, 230, 231, 232, 233, 234, 235, 236, 237, 238, 239, 240, 241, 242, 243, 244, 245, 246, 247, 248, 249, 250, 251, 252, 253, 254, 255, 256, 257, 258, 259, 260, 261, 262, 263, 264, 265, 266, 267, 268, 269, 270, 271, 272, 273, 274, 275, 276, 277, 278, 279, 280, 281, 282, 283, 284, 285, 286, 287, 288, 289, 290, 291, 292, 293, 294, 295, 296, 297, 298, 299, 300, 301, 302, 303, 304, 305, 306, 307, 308, 309, 310, 311, 312, 313, 314, 315, 316, 317, 318, 319, 320, 321, 322, 323, 324, 325, 326, 327, 328, 329, 330],
      "AcquisitionTime": ["093442.057500", "093443.062500", "093444.065000", "093445.070000", "093446.075000", "093447.077500", "093448.082500", "093449.085000", "093450.090000", "093451.095000", "093452.097500", "093453.102500", "093454.105000", "093455.110000", "093456.115000", "093457.117500", "093458.122500", "093459.125000", "093500.130000", "093501.135000", "093502.137500", "093503.142500", "093504.145000", "093505.150000", "093506.155000", "093507.157500", "093508.162500", "093509.167500", "093510.170000", "093511.175000", "093512.177500", "093513.182500", "093514.187500", "093515.190000", "093516.195000", "093517.197500", "093518.202500", "093519.207500", "093520.210000", "093521.215000", "093522.217500", "093523.222500", "093524.227500", "093525.230000", "093526.235000", "093527.237500", "093528.242500", "093529.247500", "093530.250000", "093531.255000", "093532.257500", "093533.262500", "093534.267500", "093535.270000", "093536.275000", "093537.277500", "093538.282500", "093539.287500", "093540.290000", "093541.295000", "093542.300000", "093543.302500", "093544.307500", "093545.310000", "093546.315000", "093547.320000", "093548.322500", "093549.327500", "093550.330000", "093551.335000", "093552.340000", "093553.342500", "093554.347500", "093555.350000", "093556.355000", "093557.360000", "093558.362500", "093559.367500", "093600.370000", "093601.375000", "093602.380000", "093603.382500", "093604.387500", "093605.390000", "093606.395000", "093607.400000", "093608.402500", "093609.407500", "093610.410000", "093611.415000", "093612.420000", "093613.422500", "093614.427500", "093615.432500", "093616.435000", "093617.440000", "093618.442500", "093619.447500", "093620.452500", "093621.455000", "093622.460000", "093623.462500", "093624.467500", "093625.472500", "093626.475000", "093627.480000", "093628.482500", "093629.487500", "093630.492500", "093631.495000", "093632.500000", "093633.502500", "093634.507500", "093635.512500", "093636.515000", "093637.520000", "093638.522500", "093639.527500", "093640.532500", "093641.535000", "093642.540000", "093643.545000", "093644.547500", "093645.552500", "093646.555000", "093647.560000", "093648.565000", "093649.567500", "093650.572500", "093651.575000", "093652.580000", "093653.585000", "093654.587500", "093655.592500", "093656.595000", "093657.600000", "093658.605000", "093659.607500", "093700.612500", "093701.615000", "093702.620000", "093703.625000", "093704.627500", "093705.632500", "093706.635000", "093707.640000", "093708.645000", "093709.647500", "093710.652500", "093711.655000", "093712.660000", "093713.665000", "093714.667500", "093715.672500", "093716.677500", "093717.680000", "093718.685000", "093719.687500", "093720.692500", "093721.697500", "093722.700000", "093723.705000", "093724.707500", "093725.712500", "093726.717500", "093727.720000", "093728.725000", "093729.727500", "093730.732500", "093731.737500", "093732.740000", "093733.745000", "093734.747500", "093735.752500", "093736.757500", "093737.760000", "093738.765000", "093739.767500", "093740.772500", "093741.777500", "093742.780000", "093743.785000", "093744.790000", "093745.792500", "093746.797500", "093747.800000", "093748.805000", "093749.810000", "093750.812500", "093751.817500", "093752.820000", "093753.825000", "093754.830000", "093755.832500", "093756.837500", "093757.840000", "093758.845000", "093759.850000", "093800.852500", "093801.857500", "093802.860000", "093803.865000", "093804.870000", "093805.872500", "093806.877500", "093807.880000", "093808.885000", "093809.890000", "093810.892500", "093811.897500", "093812.900000", "093813.905000", "093814.910000", "093815.912500", "093816.917500", "093817.922500", "093818.925000", "093819.930000", "093820.932500", "093821.937500", "093822.942500", "093823.945000", "093824.950000", "093825.952500", "093826.957500", "093827.962500", "093828.965000", "093829.970000", "093830.972500", "093831.977500", "093832.982500", "093833.985000", "093834.990000", "093835.992500", "093836.997500", "093838.002500", "093839.005000", "093840.010000", "093841.012500", "093842.017500", "093843.022500", "093844.025000", "093845.030000", "093846.032500", "093847.037500", "093848.042500", "093849.045000", "093850.050000", "093851.055000", "093852.057500", "093853.062500", "093854.065000", "093855.070000", "093856.075000", "093857.077500", "093858.082500", "093859.085000", "093900.090000", "093901.095000", "093902.097500", "093903.102500", "093904.105000", "093905.110000", "093906.115000", "093907.117500", "093908.122500", "093909.125000", "093910.130000", "093911.135000", "093912.137500", "093913.142500", "093914.145000", "093915.150000", "093916.155000", "093917.157500", "093918.162500", "093919.167500", "093920.170000", "093921.175000", "093922.177500", "093923.182500", "093924.187500", "093925.190000", "093926.195000", "093927.197500", "093928.202500", "093929.207500", "093930.210000", "093931.215000", "093932.217500", "093933.222500", "093934.227500", "093935.230000", "093936.235000", "093937.237500", "093938.242500", "093939.247500", "093940.250000", "093941.255000", "093942.257500", "093943.262500", "093944.267500", "093945.270000", "093946.275000", "093947.277500", "093948.282500", "093949.287500", "093950.290000", "093951.295000", "093952.300000", "093953.302500", "093954.307500", "093955.310000", "093956.315000", "093957.320000", "093958.322500", "093959.327500", "094000.330000", "094001.335000", "094002.340000", "094003.342500", "094004.347500", "094005.350000", "094006.355000", "094007.360000", "094008.362500", "094009.367500", "094010.370000", "094011.375000", "094012.380000"],
      "ContentTime": ["093505.375000", "093505.375000", "093505.375000", "093505.390000", "093505.390000", "093505.390000", "093505.390000", "093505.390000", "093505.390000", "093505.390000", "093505.406000", "093505.406000", "093505.406000", "093505.406000", "093505.406000", "093505.406000", "093505.406000", "093505.406000", "093505.421000", "093505.421000", "093505.421000", "093505.421000", "093525.343000", "093525.343000", "093525.343000", "093525.343000", "093525.343000", "093525.359000", "093525.359000", "093525.359000", "093525.359000", "093525.359000", "093525.359000", "093525.375000", "093525.375000", "093525.375000", "093525.375000", "093525.375000", "093525.375000", "093525.375000", "093525.390000", "093525.390000", "093545.343000", "093545.343000", "093545.343000", "093545.343000", "093545.343000", "093545.359000", "093545.359000", "093545.359000", "093545.359000", "093545.359000", "093545.359000", "093545.359000", "093545.375000", "093545.375000", "093545.375000", "093545.375000", "093545.375000", "093545.375000", "093545.375000", "093545.375000", "093605.343000", "093605.343000", "093605.343000", "093605.343000", "093605.343000", "093605.359000", "093605.359000", "093605.359000", "093605.359000", "093605.359000", "093605.359000", "093605.359000", "093605.359000", "093605.375000", "093605.375000", "093605.375000", "093605.375000", "093605.375000", "093605.375000", "093605.390000", "093625.343000", "093625.343000", "093625.343000", "093625.343000", "093625.359000", "093625.359000", "093625.359000", "093625.359000", "093625.359000", "093625.359000", "093625.359000", "093625.359000", "093625.375000", "093625.375000", "093625.375000", "093625.375000", "093625.375000", "093625.375000", "093625.390000", "093625.390000", "093645.343000", "093645.343000", "093645.343000", "093645.343000", "093645.343000", "093645.359000", "093645.359000", "093645.359000", "093645.359000", "093645.359000", "093645.359000", "093645.359000", "093645.375000", "093645.375000", "093645.375000", "093645.375000", "093645.375000", "093645.375000", "093645.375000", "093645.390000", "093705.343000", "093705.343000", "093705.343000", "093705.343000", "093705.343000", "093705.359000", "093705.359000", "093705.359000", "093705.359000", "093705.359000", "093705.359000", "093705.359000", "093705.375000", "093705.375000", "093705.375000", "093705.375000", "093705.375000", "093705.375000", "093705.375000", "093705.390000", "093725.343000", "093725.343000", "093725.343000", "093725.343000", "093725.359000", "093725.359000", "093725.359000", "093725.359000", "093725.359000", "093725.359000", "093725.359000", "093725.359000", "093725.375000", "093725.375000", "093725.375000", "093725.375000", "093725.375000", "093725.375000", "093725.375000", "093725.390000", "093745.343000", "093745.343000", "093745.343000", "093745.343000", "093745.359000", "093745.375000", "093745.375000", "093745.375000", "093745.375000", "093745.390000", "093745.390000", "093745.390000", "093745.390000", "093745.390000", "093745.390000", "093745.390000", "093745.406000", "093745.406000", "093745.406000", "093745.406000", "093805.343000", "093805.343000", "093805.343000", "093805.343000", "093805.343000", "093805.359000", "093805.359000", "093805.359000", "093805.359000", "093805.359000", "093805.359000", "093805.359000", "093805.375000", "093805.375000", "093805.375000", "093805.375000", "093805.375000", "093805.375000", "093805.390000", "093805.390000", "093825.343000", "093825.343000", "093825.343000", "093825.359000", "093825.359000", "093825.359000", "093825.359000", "093825.359000", "093825.359000", "093825.359000", "093825.375000", "093825.375000", "093825.375000", "093825.375000", "093825.375000", "093825.375000", "093825.375000", "093825.375000", "093825.390000", "093825.390000", "093845.343000", "093845.343000", "093845.343000", "093845.343000", "093845.343000", "093845.359000", "093845.359000", "093845.359000", "093845.359000", "093845.359000", "093845.359000", "093845.359000", "093845.375000", "093845.375000", "093845.375000", "093845.375000", "093845.375000", "093845.375000", "093845.375000", "093845.375000", "093905.343000", "093905.343000", "093905.343000", "093905.359000", "093905.359000", "093905.359000", "093905.359000", "093905.359000", "093905.359000", "093905.359000", "093905.375000", "093905.375000", "093905.375000", "093905.375000", "093905.375000", "093905.375000", "093905.375000", "093905.375000", "093905.390000", "093905.390000", "093925.343000", "093925.343000", "093925.343000", "093925.343000", "093925.343000", "093925.359000", "093925.359000", "093925.359000", "093925.359000", "093925.359000", "093925.359000", "093925.359000", "093925.375000", "093925.375000", "093925.375000", "093925.375000", "093925.375000", "093925.375000", "093925.375000", "093925.375000", "093945.343000", "093945.343000", "093945.343000", "093945.343000", "093945.343000", "093945.359000", "093945.359000", "093945.359000", "093945.359000", "093945.359000", "093945.359000", "093945.359000", "093945.375000", "093945.375000", "093945.375000", "093945.375000", "093945.375000", "093945.375000", "093945.375000", "093945.375000", "094005.343000", "094005.343000", "094005.343000", "094005.343000", "094005.343000", "094005.359000", "094005.359000", "094005.359000", "094005.359000", "094005.359000", "094005.359000", "094005.375000", "094005.375000", "094005.375000", "094005.375000", "094005.375000", "094005.390000", "094005.390000", "094005.390000", "094005.390000", "094018.171000", "094018.171000", "094018.171000", "094018.187000", "094018.187000", "094018.187000", "094018.187000", "094018.187000"],
      "InstanceCreationTime": ["093505.375000", "093505.375000", "093505.375000", "093505.390000", "093505.390000", "093505.390000", "093505.390000", "093505.390000", "093505.390000", "093505.390000", "093505.406000", "093505.406000", "093505.406000", "093505.406000", "093505.406000", "093505.406000", "093505.406000", "093505.406000", "093505.421000", "093505.421000", "093505.421000", "093505.421000", "093525.343000", "093525.343000", "093525.343000", "093525.343000", "093525.343000", "093525.359000", "093525.359000", "093525.359000", "093525.359000", "093525.359000", "093525.359000", "093525.375000", "093525.375000", "093525.375000", "093525.375000", "093525.375000", "093525.375000", "093525.375000", "093525.390000", "093525.390000", "093545.343000", "093545.343000", "093545.343000", "093545.343000", "093545.343000", "093545.359000", "093545.359000", "093545.359000", "093545.359000", "093545.359000", "093545.359000", "093545.359000", "093545.375000", "093545.375000", "093545.375000", "093545.375000", "093545.375000", "093545.375000", "093545.375000", "093545.375000", "093605.343000", "093605.343000", "093605.343000", "093605.343000", "093605.343000", "093605.359000", "093605.359000", "093605.359000", "093605.359000", "093605.359000", "093605.359000", "093605.359000", "093605.359000", "093605.375000", "093605.375000", "093605.375000", "093605.375000", "093605.375000", "093605.375000", "093605.390000", "093625.343000", "093625.343000", "093625.343000", "093625.343000", "093625.359000", "093625.359000", "093625.359000", "093625.359000", "093625.359000", "093625.359000", "093625.359000", "093625.359000", "093625.375000", "093625.375000", "093625.375000", "093625.375000", "093625.375000", "093625.375000", "093625.390000", "093625.390000", "093645.343000", "093645.343000", "093645.343000", "093645.343000", "093645.343000", "093645.359000", "093645.359000", "093645.359000", "093645.359000", "093645.359000", "093645.359000", "093645.359000", "093645.375000", "093645.375000", "093645.375000", "093645.375000", "093645.375000", "093645.375000", "093645.375000", "093645.390000", "093705.343000", "093705.343000", "093705.343000", "093705.343000", "093705.343000", "093705.359000", "093705.359000", "093705.359000", "093705.359000", "093705.359000", "093705.359000", "093705.359000", "093705.375000", "093705.375000", "093705.375000", "093705.375000", "093705.375000", "093705.375000", "093705.375000", "093705.390000", "093725.343000", "093725.343000", "093725.343000", "093725.343000", "093725.359000", "093725.359000", "093725.359000", "093725.359000", "093725.359000", "093725.359000", "093725.359000", "093725.359000", "093725.375000", "093725.375000", "093725.375000", "093725.375000", "093725.375000", "093725.375000", "093725.375000", "093725.390000", "093745.343000", "093745.343000", "093745.343000", "093745.343000", "093745.359000", "093745.375000", "093745.375000", "093745.375000", "093745.375000", "093745.390000", "093745.390000", "093745.390000", "093745.390000", "093745.390000", "093745.390000", "093745.390000", "093745.406000", "093745.406000", "093745.406000", "093745.406000", "093805.343000", "093805.343000", "093805.343000", "093805.343000", "093805.343000", "093805.359000", "093805.359000", "093805.359000", "093805.359000", "093805.359000", "093805.359000", "093805.359000", "093805.375000", "093805.375000", "093805.375000", "093805.375000", "093805.375000", "093805.375000", "093805.390000", "093805.390000", "093825.343000", "093825.343000", "093825.343000", "093825.359000", "093825.359000", "093825.359000", "093825.359000", "093825.359000", "093825.359000", "093825.359000", "093825.375000", "093825.375000", "093825.375000", "093825.375000", "093825.375000", "093825.375000", "093825.375000", "093825.375000", "093825.390000", "093825.390000", "093845.343000", "093845.343000", "093845.343000", "093845.343000", "093845.343000", "093845.359000", "093845.359000", "093845.359000", "093845.359000", "093845.359000", "093845.359000", "093845.359000", "093845.375000", "093845.375000", "093845.375000", "093845.375000", "093845.375000", "093845.375000", "093845.375000", "093845.375000", "093905.343000", "093905.343000", "093905.343000", "093905.359000", "093905.359000", "093905.359000", "093905.359000", "093905.359000", "093905.359000", "093905.359000", "093905.375000", "093905.375000", "093905.375000", "093905.375000", "093905.375000", "093905.375000", "093905.375000", "093905.375000", "093905.390000", "093905.390000", "093925.343000", "093925.343000", "093925.343000", "093925.343000", "093925.343000", "093925.359000", "093925.359000", "093925.359000", "093925.359000", "093925.359000", "093925.359000", "093925.359000", "093925.375000", "093925.375000", "093925.375000", "093925.375000", "093925.375000", "093925.375000", "093925.375000", "093925.375000", "093945.343000", "093945.343000", "093945.343000", "093945.343000", "093945.343000", "093945.359000", "093945.359000", "093945.359000", "093945.359000", "093945.359000", "093945.359000", "093945.359000", "093945.375000", "093945.375000", "093945.375000", "093945.375000", "093945.375000", "093945.375000", "093945.375000", "093945.375000", "094005.343000", "094005.343000", "094005.343000", "094005.343000", "094005.343000", "094005.359000", "094005.359000", "094005.359000", "094005.359000", "094005.359000", "094005.359000", "094005.375000", "094005.375000", "094005.375000", "094005.375000", "094005.375000", "094005.390000", "094005.390000", "094005.390000", "094005.390000", "094018.171000", "094018.171000", "094018.171000", "094018.187000", "094018.187000", "094018.187000", "094018.187000", "094018.187000"],
      "InstanceNumber": [1, 2, 3, 4, 5, 6, 7, 8, 9, 10, 11, 12, 13, 14, 15, 16, 17, 18, 19, 20, 21, 22, 23, 24, 25, 26, 27, 28, 29, 30, 31, 32, 33, 34, 35, 36, 37, 38, 39, 40, 41, 42, 43, 44, 45, 46, 47, 48, 49, 50, 51, 52, 53, 54, 55, 56, 57, 58, 59, 60, 61, 62, 63, 64, 65, 66, 67, 68, 69, 70, 71, 72, 73, 74, 75, 76, 77, 78, 79, 80, 81, 82, 83, 84, 85, 86, 87, 88, 89, 90, 91, 92, 93, 94, 95, 96, 97, 98, 99, 100, 101, 102, 103, 104, 105, 106, 107, 108, 109, 110, 111, 112, 113, 114, 115, 116, 117, 118, 119, 120, 121, 122, 123, 124, 125, 126, 127, 128, 129, 130, 131, 132, 133, 134, 135, 136, 137, 138, 139, 140, 141, 142, 143, 144, 145, 146, 147, 148, 149, 150, 151, 152, 153, 154, 155, 156, 157, 158, 159, 160, 161, 162, 163, 164, 165, 166, 167, 168, 169, 170, 171, 172, 173, 174, 175, 176, 177, 178, 179, 180, 181, 182, 183, 184, 185, 186, 187, 188, 189, 190, 191, 192, 193, 194, 195, 196, 197, 198, 199, 200, 201, 202, 203, 204, 205, 206, 207, 208, 209, 210, 211, 212, 213, 214, 215, 216, 217, 218, 219, 220, 221, 222, 223, 224, 225, 226, 227, 228, 229, 230, 231, 232, 233, 234, 235, 236, 237, 238, 239, 240, 241, 242, 243, 244, 245, 246, 247, 248, 249, 250, 251, 252, 253, 254, 255, 256, 257, 258, 259, 260, 261, 262, 263, 264, 265, 266, 267, 268, 269, 270, 271, 272, 273, 274, 275, 276, 277, 278, 279, 280, 281, 282, 283, 284, 285, 286, 287, 288, 289, 290, 291, 292, 293, 294, 295, 296, 297, 298, 299, 300, 301, 302, 303, 304, 305, 306, 307, 308, 309, 310, 311, 312, 313, 314, 315, 316, 317, 318, 319, 320, 321, 322, 323, 324, 325, 326, 327, 328, 329, 330],
      "LargestImagePixelValue": [1657, 1687, 1689, 1652, 1625, 1629, 1663, 1631, 1650, 1635, 1610, 1598, 1640, 1640, 1645, 1623, 1650, 1660, 1624, 1628, 1695, 1684, 1637, 1617, 1670, 1642, 1652, 1625, 1615, 1647, 1631, 1656, 1609, 1643, 1671, 1636, 1647, 1640, 1622, 1626, 1608, 1635, 1638, 1655, 1623, 1651, 1625, 1656, 1616, 1595, 1615, 1643, 1667, 1637, 1605, 1606, 1602, 1627, 1640, 1678, 1621, 1627, 1637, 1602, 1661, 1657, 1653, 1615, 1652, 1638, 1604, 1636, 1648, 1635, 1571, 1590, 1631, 1620, 1615, 1601, 1605, 1614, 1628, 1599, 1616, 1671, 1677, 1638, 1647, 1596, 1623, 1602, 1619, 1602, 1620, 1597, 1619, 1657, 1612, 1594, 1583, 1631, 1642, 1595, 1607, 1638, 1601, 1603, 1644, 1608, 1654, 1634, 1616, 1618, 1666, 1635, 1625, 1619, 1616, 1632, 1627, 1610, 1607, 1647, 1656, 1685, 1677, 1635, 1639, 1688, 1659, 1662, 1648, 1660, 1681, 1665, 1666, 1671, 1645, 1691, 1664, 1678, 1648, 1702, 1649, 1664, 1685, 1687, 1690, 1666, 1679, 1647, 1653, 1649, 1670, 1684, 1697, 1663, 1685, 1648, 1695, 1682, 1661, 1712, 1680, 1675, 1663, 1684, 1653, 1642, 1652, 1705, 1685, 1683, 1749, 1675, 1674, 1662, 1671, 1668, 1647, 1693, 1686, 1667, 1696, 1700, 1683, 1668, 1660, 1679, 1675, 1672, 1689, 1662, 1690, 1703, 1669, 1677, 1698, 1710, 1690, 1694, 1698, 1689, 1711, 1719, 1663, 1652, 1678, 1666, 1682, 1678, 1656, 1676, 1680, 1691, 1701, 1670, 1686, 1685, 1687, 1696, 1700, 1670, 1695, 1723, 1703, 1682, 1717, 1718, 1685, 1717, 1704, 1699, 1719, 1704, 1691, 1703, 1687, 1718, 1711, 1707, 1710, 1704, 1705, 1654, 1700, 1691, 1676, 1696, 1681, 1713, 1682, 1694, 1701, 1678, 1681, 1661, 1716, 1695, 1674, 1695, 1684, 1686, 1693, 1693, 1705, 1700, 1694, 1676, 1667, 1647, 1664, 1693, 1646, 1706, 1693, 1696, 1691, 1676, 1696, 1696, 1704, 1688, 1669, 1662, 1721, 1638, 1665, 1677, 1671, 1670, 1668, 1682, 1683, 1678, 1686, 1679, 1676, 1667, 1662, 1672, 1688, 1683, 1679, 1670, 1685, 1650, 1696, 1683, 1674, 1699, 1690, 1689, 1690, 1702, 1683, 1685, 1699, 1684, 1698, 1709, 1751, 1714, 1709, 1668, 1680, 1695, 1697, 1667],
      "WindowCenter": [371.0, 370.0, 369.0, 368.0, 367.0, 368.0, 368.0, 368.0, 369.0, 369.0, 369.0, 368.0, 368.0, 369.0, 369.0, 368.0, 369.0, 369.0, 368.0, 368.0, 369.0, 367.0, 367.0, 368.0, 368.0, 368.0, 368.0, 369.0, 369.0, 370.0, 370.0, 370.0, 369.0, 369.0, 368.0, 368.0, 369.0, 370.0, 369.0, 370.0, 369.0, 370.0, 369.0, 368.0, 368.0, 367.0, 366.0, 367.0, 367.0, 368.0, 369.0, 370.0, 370.0, 370.0, 369.0, 369.0, 369.0, 369.0, 369.0, 370.0, 369.0, 369.0, 369.0, 369.0, 369.0, 369.0, 368.0, 367.0, 368.0, 369.0, 368.0, 368.0, 368.0, 366.0, 366.0, 367.0, 369.0, 369.0, 369.0, 369.0, 368.0, 368.0, 369.0, 367.0, 368.0, 369.0, 370.0, 370.0, 370.0, 370.0, 369.0, 369.0, 367.0, 367.0, 368.0, 367.0, 368.0, 369.0, 368.0, 369.0, 369.0, 369.0, 368.0, 367.0, 368.0, 369.0, 369.0, 369.0, 370.0, 368.0, 366.0, 367.0, 367.0, 367.0, 368.0, 369.0, 369.0, 371.0, 370.0, 370.0, 369.0, 369.0, 368.0, 370.0, 369.0, 369.0, 370.0, 370.0, 370.0, 370.0, 370.0, 369.0, 370.0, 370.0, 370.0, 370.0, 371.0, 370.0, 370.0, 370.0, 370.0, 369.0, 370.0, 370.0, 370.0, 370.0, 370.0, 368.0, 368.0, 367.0, 368.0, 369.0, 370.0, 370.0, 371.0, 371.0, 370.0, 370.0, 370.0, 368.0, 369.0, 370.0, 369.0, 370.0, 370.0, 368.0, 368.0, 369.0, 368.0, 368.0, 370.0, 370.0, 370.0, 370.0, 370.0, 369.0, 370.0, 370.0, 370.0, 371.0, 372.0, 373.0, 371.0, 370.0, 368.0, 368.0, 369.0, 370.0, 371.0, 372.0, 371.0, 371.0, 371.0, 370.0, 370.0, 371.0, 370.0, 371.0, 372.0, 372.0, 372.0, 372.0, 371.0, 371.0, 371.0, 371.0, 369.0, 370.0, 370.0, 370.0, 371.0, 371.0, 370.0, 370.0, 370.0, 370.0, 370.0, 370.0, 370.0, 370.0, 370.0, 370.0, 369.0, 369.0, 370.0, 370.0, 370.0, 371.0, 371.0, 371.0, 371.0, 370.0, 370.0, 370.0, 370.0, 370.0, 370.0, 369.0, 369.0, 370.0, 370.0, 370.0, 371.0, 371.0, 370.0, 370.0, 370.0, 370.0, 370.0, 371.0, 371.0, 371.0, 371.0, 371.0, 371.0, 371.0, 371.0, 371.0, 371.0, 371.0, 371.0, 371.0, 372.0, 371.0, 371.0, 371.0, 371.0, 371.0, 371.0, 372.0, 373.0, 371.0, 371.0, 372.0, 372.0, 372.0, 372.0, 371.0, 371.0, 371.0, 371.0, 370.0, 370.0, 370.0, 371.0, 371.0, 373.0, 372.0, 372.0, 372.0, 371.0, 370.0, 370.0, 369.0, 368.0, 370.0, 370.0, 371.0, 372.0, 371.0, 371.0, 371.0, 370.0, 370.0, 370.0, 369.0, 369.0, 369.0, 370.0, 369.0, 370.0, 371.0, 372.0, 372.0, 372.0, 370.0, 369.0, 369.0, 369.0, 368.0, 368.0, 368.0, 368.0, 367.0, 368.0, 368.0, 368.0, 368.0, 368.0, 368.0],
