{
  "AcquisitionMatrixPE": 104,
  "AcquisitionNumber": 1,
  "AcquisitionTime": "09:50:8.005000",
  "BandwidthPerPixelPhaseEncode": 43.054,
  "BaseResolution": 104,
  "CoilString": "C:E1_2",
  "ConversionSoftware": "dcm2niix",
  "ConversionSoftwareVersion": "v1.0.20191031",
  "DerivedVendorReportedEchoSpacing": 0.000669999,
  "DeviceSerialNumber": "18932",
  "DwellTime": 2.8e-06,
  "EchoTime": 0.02,
  "EffectiveEchoSpacing": 0.000223333,
  "FlipAngle": 30,
  "ImageComments": "Unaliased_MB2_PE2",
  "ImageOrientationPatientDICOM": [1, 2e-16, 0, -2e-16, 0.965926, -0.258819],
  "ImageType": [
    "ORIGINAL",
    "PRIMARY",
    "M",
    "MB",
    "ND",
    "MOSAIC"
],
  "ImagingFrequency": 297.23,
  "InPlanePhaseEncodingDirectionDICOM": "COL",
  "InstitutionAddress": "Richmond_Street_North_1151_London_409EF2_Ontario_CA_N6A_5B7",
  "InstitutionName": "Robarts_Reserch_Institute",
  "InstitutionalDepartmentName": "Department",
  "MRAcquisitionType": "2D",
  "MagneticFieldStrength": 6.98,
  "Manufacturer": "Siemens",
  "ManufacturersModelName": "Investigational_Device_7T",
  "Modality": "MR",
  "MultibandAccelerationFactor": 2,
  "ParallelReductionFactorInPlane": 3,
  "PartialFourier": 0.875,
  "PatientPosition": "HFS",
  "PercentPhaseFOV": 100,
  "PhaseEncodingDirection": "j-",
  "PhaseEncodingSteps": 91,
  "PhaseResolution": 1,
  "PixelBandwidth": 1717,
  "ProcedureStepDescription": "Diedrichsen_SeqRep4",
  "ProtocolName": "mbep2d_bold_mb2_p3_AP_2iso",
  "PulseSequenceDetails": "%CustomerSeq%_cmrr_mbep2d_bold",
  "ReceiveCoilName": "CFMM_8Tx32Rx",
  "ReconMatrixPE": 104,
  "RefLinesPE": 36,
  "RepetitionTime": 1,
  "ScanOptions": "PFP_FS",
  "ScanningSequence": "EP",
  "SequenceName": "epfid2d1_104",
  "SequenceVariant": "SK_SS",
  "SeriesDescription": "mbep2d_bold_mb2_p3_AP_2iso",
  "SeriesNumber": 22,
  "ShimSetting": [-5, 1998, 309, 43, -98, -114, -302, -166],
  "SliceThickness": 2,
  "SliceTiming": [0, 0.23, 0.4575, 0.685, 0.9125, 0.1375, 0.365, 0.595, 0.8225, 0.0475, 0.275, 0.5025, 0.73, 0.96, 0.1825, 0.4125, 0.64, 0.8675, 0.0925, 0.32, 0.5475, 0.7775, 0, 0.23, 0.4575, 0.685, 0.9125, 0.1375, 0.365, 0.595, 0.8225, 0.0475, 0.275, 0.5025, 0.73, 0.96, 0.1825, 0.4125, 0.64, 0.8675, 0.0925, 0.32, 0.5475, 0.7775],
  "SoftwareVersions": "syngo_MR_B17",
  "SpacingBetweenSlices": 2,
  "StationName": "MASTER",
  "TaskName": "dsp",
  "TotalReadoutTime": 0.0230033,
  "TxRefAmp": 120,
  "dcmmeta_affine": [
    [-2.0, -4.000000067449534e-16, 1.035276159788667e-16, 103.27360534667969],
    [-4.000000067449534e-16, 1.9318516254425049, -0.517638087272644, -100.47244262695312],
    [0.0, 0.517638087272644, 1.9318516254425049, -65.80461883544922],
    [0.0, 0.0, 0.0, 1.0]
],
  "dcmmeta_reorient_transform": [
    [0.0, -1.0, 0.0, 103.0],
    [1.0, 0.0, 0.0, 0.0],
    [0.0, 0.0, 1.0, 0.0],
    [0.0, 0.0, 0.0, 1.0]
],
  "dcmmeta_shape": [104, 104, 44, 330],
  "dcmmeta_slice_dim": 2,
  "dcmmeta_version": 0.6,
  "global": {
    "const": {
      "AcquisitionMatrix": [104, 0, 0, 104],
      "AngioFlag": "N",
      "BitsAllocated": 16,
      "BitsStored": 12,
      "Columns": 728,
      "EchoNumbers": 1,
      "EchoTime": 20.0,
      "EchoTrainLength": 1,
      "FlipAngle": 30.0,
      "HighBit": 11,
      "ImageOrientationPatient": [1.0, 2e-16, 0.0, -2e-16, 0.9659258278573, -0.2588190392498],
      "ImagePositionPatient": [-727.27360773087, -701.24599295073, 149.01518168592],
      "ImageType": [
        "ORIGINAL",
        "PRIMARY",
        "M",
        "MB",
        "ND",
        "MOSAIC"
],
      "ImagedNucleus": "1H",
      "ImagingFrequency": 297.229871,
      "InPlanePhaseEncodingDirection": "COL",
      "MRAcquisitionType": "2D",
      "MagneticFieldStrength": 6.98,
      "Manufacturer": "SIEMENS",
      "ManufacturerModelName": "Investigational_Device_7T",
      "Modality": "MR",
      "NumberOfAverages": 1.0,
      "NumberOfPhaseEncodingSteps": 91,
      "PercentPhaseFieldOfView": 100.0,
      "PercentSampling": 100.0,
      "PerformedProcedureStepStartTime": "091301.203000",
      "PhotometricInterpretation": "MONOCHROME2",
      "PixelBandwidth": 1717.0,
      "PixelRepresentation": 0,
      "PixelSpacing": [2.0, 2.0],
      "ProtocolName": "mbep2d_bold_mb2_p3_AP 2iso",
      "RepetitionTime": 1000.0,
      "Rows": 728,
      "SAR": 0.0,
      "SamplesPerPixel": 1,
      "ScanOptions": [
        "PFP",
        "FS"
],
      "ScanningSequence": "EP",
      "SequenceName": "epfid2d1_104",
      "SequenceVariant": [
        "SK",
        "SS"
],
      "SeriesDescription": "mbep2d_bold_mb2_p3_AP 2iso",
      "SeriesNumber": 22,
      "SeriesTime": "095045.375000",
      "SliceLocation": -37.558201440006,
      "SliceThickness": 2.0,
      "SmallestImagePixelValue": 0,
      "SoftwareVersions": "syngo MR B17",
      "SpacingBetweenSlices": 2.0000000219488,
      "SpecificCharacterSet": "ISO_IR 100",
      "StudyID": "1",
      "StudyTime": "091301.140000",
      "TransmitCoilName": "CFMM_8Tx32Rx",
      "VariableFlipAngleFlag": "N",
      "WindowCenterWidthExplanation": "Algo1",
      "dBdt": 0.0},
    "slices": {}
  },
  "time": {
    "samples": {
      "AcquisitionNumber": [1, 2, 3, 4, 5, 6, 7, 8, 9, 10, 11, 12, 13, 14, 15, 16, 17, 18, 19, 20, 21, 22, 23, 24, 25, 26, 27, 28, 29, 30, 31, 32, 33, 34, 35, 36, 37, 38, 39, 40, 41, 42, 43, 44, 45, 46, 47, 48, 49, 50, 51, 52, 53, 54, 55, 56, 57, 58, 59, 60, 61, 62, 63, 64, 65, 66, 67, 68, 69, 70, 71, 72, 73, 74, 75, 76, 77, 78, 79, 80, 81, 82, 83, 84, 85, 86, 87, 88, 89, 90, 91, 92, 93, 94, 95, 96, 97, 98, 99, 100, 101, 102, 103, 104, 105, 106, 107, 108, 109, 110, 111, 112, 113, 114, 115, 116, 117, 118, 119, 120, 121, 122, 123, 124, 125, 126, 127, 128, 129, 130, 131, 132, 133, 134, 135, 136, 137, 138, 139, 140, 141, 142, 143, 144, 145, 146, 147, 148, 149, 150, 151, 152, 153, 154, 155, 156, 157, 158, 159, 160, 161, 162, 163, 164, 165, 166, 167, 168, 169, 170, 171, 172, 173, 174, 175, 176, 177, 178, 179, 180, 181, 182, 183, 184, 185, 186, 187, 188, 189, 190, 191, 192, 193, 194, 195, 196, 197, 198, 199, 200, 201, 202, 203, 204, 205, 206, 207, 208, 209, 210, 211, 212, 213, 214, 215, 216, 217, 218, 219, 220, 221, 222, 223, 224, 225, 226, 227, 228, 229, 230, 231, 232, 233, 234, 235, 236, 237, 238, 239, 240, 241, 242, 243, 244, 245, 246, 247, 248, 249, 250, 251, 252, 253, 254, 255, 256, 257, 258, 259, 260, 261, 262, 263, 264, 265, 266, 267, 268, 269, 270, 271, 272, 273, 274, 275, 276, 277, 278, 279, 280, 281, 282, 283, 284, 285, 286, 287, 288, 289, 290, 291, 292, 293, 294, 295, 296, 297, 298, 299, 300, 301, 302, 303, 304, 305, 306, 307, 308, 309, 310, 311, 312, 313, 314, 315, 316, 317, 318, 319, 320, 321, 322, 323, 324, 325, 326, 327, 328, 329, 330],
      "AcquisitionTime": ["095008.005000", "095009.010000", "095010.015000", "095011.017500", "095012.022500", "095013.025000", "095014.030000", "095015.035000", "095016.037500", "095017.042500", "095018.045000", "095019.050000", "095020.055000", "095021.057500", "095022.062500", "095023.067500", "095024.070000", "095025.075000", "095026.077500", "095027.082500", "095028.087500", "095029.090000", "095030.095000", "095031.097500", "095032.102500", "095033.107500", "095034.110000", "095035.115000", "095036.117500", "095037.122500", "095038.127500", "095039.130000", "095040.135000", "095041.137500", "095042.142500", "095043.147500", "095044.150000", "095045.155000", "095046.157500", "095047.162500", "095048.167500", "095049.170000", "095050.175000", "095051.177500", "095052.182500", "095053.187500", "095054.190000", "095055.195000", "095056.200000", "095057.202500", "095058.207500", "095059.210000", "095100.215000", "095101.220000", "095102.222500", "095103.227500", "095104.230000", "095105.235000", "095106.240000", "095107.242500", "095108.247500", "095109.250000", "095110.255000", "095111.260000", "095112.262500", "095113.267500", "095114.270000", "095115.275000", "095116.280000", "095117.282500", "095118.287500", "095119.290000", "095120.295000", "095121.300000", "095122.302500", "095123.307500", "095124.310000", "095125.315000", "095126.320000", "095127.322500", "095128.327500", "095129.332500", "095130.335000", "095131.340000", "095132.342500", "095133.347500", "095134.352500", "095135.355000", "095136.360000", "095137.362500", "095138.367500", "095139.372500", "095140.375000", "095141.380000", "095142.382500", "095143.387500", "095144.392500", "095145.395000", "095146.400000", "095147.402500", "095148.407500", "095149.412500", "095150.415000", "095151.420000", "095152.422500", "095153.427500", "095154.432500", "095155.435000", "095156.440000", "095157.445000", "095158.447500", "095159.452500", "095200.455000", "095201.460000", "095202.465000", "095203.467500", "095204.472500", "095205.475000", "095206.480000", "095207.485000", "095208.487500", "095209.492500", "095210.495000", "095211.500000", "095212.505000", "095213.507500", "095214.512500", "095215.515000", "095216.520000", "095217.525000", "095218.527500", "095219.532500", "095220.535000", "095221.540000", "095222.545000", "095223.547500", "095224.552500", "095225.555000", "095226.560000", "095227.565000", "095228.567500", "095229.572500", "095230.577500", "095231.580000", "095232.585000", "095233.587500", "095234.592500", "095235.597500", "095236.600000", "095237.605000", "095238.607500", "095239.612500", "095240.617500", "095241.620000", "095242.625000", "095243.627500", "095244.632500", "095245.637500", "095246.640000", "095247.645000", "095248.647500", "095249.652500", "095250.657500", "095251.660000", "095252.665000", "095253.667500", "095254.672500", "095255.677500", "095256.680000", "095257.685000", "095258.687500", "095259.692500", "095300.697500", "095301.700000", "095302.705000", "095303.710000", "095304.712500", "095305.717500", "095306.720000", "095307.725000", "095308.730000", "095309.732500", "095310.737500", "095311.740000", "095312.745000", "095313.750000", "095314.752500", "095315.757500", "095316.760000", "095317.765000", "095318.770000", "095319.772500", "095320.777500", "095321.780000", "095322.785000", "095323.790000", "095324.792500", "095325.797500", "095326.800000", "095327.805000", "095328.810000", "095329.812500", "095330.817500", "095331.822500", "095332.825000", "095333.830000", "095334.832500", "095335.837500", "095336.842500", "095337.845000", "095338.850000", "095339.852500", "095340.857500", "095341.862500", "095342.865000", "095343.870000", "095344.872500", "095345.877500", "095346.882500", "095347.885000", "095348.890000", "095349.892500", "095350.897500", "095351.902500", "095352.905000", "095353.910000", "095354.912500", "095355.917500", "095356.922500", "095357.925000", "095358.930000", "095359.932500", "095400.937500", "095401.942500", "095402.945000", "095403.950000", "095404.955000", "095405.957500", "095406.962500", "095407.965000", "095408.970000", "095409.975000", "095410.977500", "095411.982500", "095412.985000", "095413.990000", "095414.995000", "095415.997500", "095417.002500", "095418.005000", "095419.010000", "095420.015000", "095421.017500", "095422.022500", "095423.025000", "095424.030000", "095425.035000", "095426.037500", "095427.042500", "095428.045000", "095429.050000", "095430.055000", "095431.057500", "095432.062500", "095433.067500", "095434.070000", "095435.075000", "095436.077500", "095437.082500", "095438.087500", "095439.090000", "095440.095000", "095441.097500", "095442.102500", "095443.107500", "095444.110000", "095445.115000", "095446.117500", "095447.122500", "095448.127500", "095449.130000", "095450.135000", "095451.137500", "095452.142500", "095453.147500", "095454.150000", "095455.155000", "095456.157500", "095457.162500", "095458.167500", "095459.170000", "095500.175000", "095501.177500", "095502.182500", "095503.187500", "095504.190000", "095505.195000", "095506.200000", "095507.202500", "095508.207500", "095509.210000", "095510.215000", "095511.220000", "095512.222500", "095513.227500", "095514.230000", "095515.235000", "095516.240000", "095517.242500", "095518.247500", "095519.250000", "095520.255000", "095521.260000", "095522.262500", "095523.267500", "095524.270000", "095525.275000", "095526.280000", "095527.282500", "095528.287500", "095529.290000", "095530.295000", "095531.300000", "095532.302500", "095533.307500", "095534.310000", "095535.315000", "095536.320000", "095537.322500", "095538.327500"],
      "ContentTime": ["095045.375000", "095045.390000", "095045.390000", "095045.390000", "095045.390000", "095045.406000", "095045.406000", "095045.406000", "095045.406000", "095045.406000", "095045.406000", "095045.406000", "095045.421000", "095045.421000", "095045.421000", "095045.421000", "095045.421000", "095045.421000", "095045.437000", "095045.437000", "095045.437000", "095045.437000", "095045.437000", "095045.437000", "095045.453000", "095045.453000", "095045.453000", "095045.453000", "095045.453000", "095045.453000", "095045.453000", "095045.468000", "095045.468000", "095045.468000", "095045.468000", "095045.484000", "095105.343000", "095105.343000", "095105.343000", "095105.343000", "095105.359000", "095105.359000", "095105.359000", "095105.359000", "095105.359000", "095105.359000", "095105.359000", "095105.375000", "095105.375000", "095105.375000", "095105.375000", "095105.375000", "095105.390000", "095105.390000", "095105.390000", "095105.390000", "095125.343000", "095125.343000", "095125.343000", "095125.343000", "095125.343000", "095125.359000", "095125.359000", "095125.359000", "095125.359000", "095125.359000", "095125.359000", "095125.359000", "095125.359000", "095125.375000", "095125.375000", "095125.375000", "095125.375000", "095125.375000", "095125.375000", "095125.375000", "095145.343000", "095145.343000", "095145.343000", "095145.343000", "095145.343000", "095145.359000", "095145.359000", "095145.359000", "095145.375000", "095145.375000", "095145.375000", "095145.375000", "095145.375000", "095145.375000", "095145.390000", "095145.390000", "095145.390000", "095145.390000", "095145.390000", "095145.390000", "095205.343000", "095205.343000", "095205.343000", "095205.343000", "095205.343000", "095205.359000", "095205.359000", "095205.359000", "095205.359000", "095205.359000", "095205.359000", "095205.359000", "095205.375000", "095205.375000", "095205.375000", "095205.375000", "095205.375000", "095205.390000", "095205.390000", "095205.390000", "095225.343000", "095225.343000", "095225.343000", "095225.343000", "095225.343000", "095225.359000", "095225.359000", "095225.359000", "095225.359000", "095225.359000", "095225.359000", "095225.359000", "095225.375000", "095225.375000", "095225.375000", "095225.375000", "095225.375000", "095225.375000", "095225.375000", "095225.390000", "095245.343000", "095245.343000", "095245.343000", "095245.343000", "095245.343000", "095245.359000", "095245.359000", "095245.359000", "095245.359000", "095245.359000", "095245.359000", "095245.375000", "095245.375000", "095245.375000", "095245.375000", "095245.375000", "095245.375000", "095245.375000", "095245.375000", "095245.390000", "095305.343000", "095305.343000", "095305.343000", "095305.343000", "095305.343000", "095305.359000", "095305.359000", "095305.359000", "095305.359000", "095305.359000", "095305.359000", "095305.375000", "095305.390000", "095305.390000", "095305.390000", "095305.390000", "095305.390000", "095305.390000", "095305.390000", "095305.390000", "095325.343000", "095325.343000", "095325.343000", "095325.343000", "095325.343000", "095325.359000", "095325.359000", "095325.359000", "095325.359000", "095325.359000", "095325.359000", "095325.359000", "095325.375000", "095325.375000", "095325.375000", "095325.375000", "095325.375000", "095325.375000", "095325.390000", "095325.390000", "095345.343000", "095345.343000", "095345.343000", "095345.343000", "095345.343000", "095345.359000", "095345.359000", "095345.359000", "095345.359000", "095345.359000", "095345.359000", "095345.359000", "095345.375000", "095345.375000", "095345.375000", "095345.375000", "095345.375000", "095345.375000", "095345.375000", "095345.390000", "095405.343000", "095405.343000", "095405.343000", "095405.343000", "095405.343000", "095405.359000", "095405.359000", "095405.359000", "095405.359000", "095405.359000", "095405.359000", "095405.359000", "095405.375000", "095405.375000", "095405.375000", "095405.375000", "095405.375000", "095405.375000", "095405.375000", "095405.390000", "095425.343000", "095425.343000", "095425.343000", "095425.343000", "095425.343000", "095425.359000", "095425.359000", "095425.359000", "095425.359000", "095425.359000", "095425.359000", "095425.359000", "095425.359000", "095425.375000", "095425.375000", "095425.375000", "095425.375000", "095425.375000", "095425.375000", "095425.390000", "095445.343000", "095445.343000", "095445.343000", "095445.343000", "095445.343000", "095445.359000", "095445.359000", "095445.359000", "095445.359000", "095445.359000", "095445.359000", "095445.359000", "095445.359000", "095445.375000", "095445.375000", "095445.375000", "095445.375000", "095445.390000", "095445.390000", "095445.390000", "095505.343000", "095505.343000", "095505.359000", "095505.359000", "095505.359000", "095505.359000", "095505.359000", "095505.359000", "095505.359000", "095505.375000", "095505.375000", "095505.375000", "095505.375000", "095505.375000", "095505.375000", "095505.375000", "095505.390000", "095505.390000", "095505.390000", "095505.390000", "095525.343000", "095525.343000", "095525.343000", "095525.343000", "095525.359000", "095525.359000", "095525.359000", "095525.359000", "095525.359000", "095525.359000", "095525.375000", "095525.375000", "095525.375000", "095525.375000", "095525.375000", "095525.375000", "095525.375000", "095525.390000", "095525.390000", "095525.390000", "095543.578000", "095543.593000", "095543.593000", "095543.593000", "095543.593000", "095543.593000", "095543.593000", "095543.593000", "095543.609000", "095543.609000", "095543.609000", "095543.609000", "095543.609000", "095543.609000"],
      "InstanceCreationTime": ["095045.375000", "095045.390000", "095045.390000", "095045.390000", "095045.390000", "095045.406000", "095045.406000", "095045.406000", "095045.406000", "095045.406000", "095045.406000", "095045.406000", "095045.421000", "095045.421000", "095045.421000", "095045.421000", "095045.421000", "095045.421000", "095045.437000", "095045.437000", "095045.437000", "095045.437000", "095045.437000", "095045.437000", "095045.453000", "095045.453000", "095045.453000", "095045.453000", "095045.453000", "095045.453000", "095045.453000", "095045.468000", "095045.468000", "095045.468000", "095045.468000", "095045.484000", "095105.343000", "095105.343000", "095105.343000", "095105.343000", "095105.359000", "095105.359000", "095105.359000", "095105.359000", "095105.359000", "095105.359000", "095105.359000", "095105.375000", "095105.375000", "095105.375000", "095105.375000", "095105.375000", "095105.390000", "095105.390000", "095105.390000", "095105.390000", "095125.343000", "095125.343000", "095125.343000", "095125.343000", "095125.343000", "095125.359000", "095125.359000", "095125.359000", "095125.359000", "095125.359000", "095125.359000", "095125.359000", "095125.359000", "095125.375000", "095125.375000", "095125.375000", "095125.375000", "095125.375000", "095125.375000", "095125.375000", "095145.343000", "095145.343000", "095145.343000", "095145.343000", "095145.343000", "095145.359000", "095145.359000", "095145.359000", "095145.375000", "095145.375000", "095145.375000", "095145.375000", "095145.375000", "095145.375000", "095145.390000", "095145.390000", "095145.390000", "095145.390000", "095145.390000", "095145.390000", "095205.343000", "095205.343000", "095205.343000", "095205.343000", "095205.343000", "095205.359000", "095205.359000", "095205.359000", "095205.359000", "095205.359000", "095205.359000", "095205.359000", "095205.375000", "095205.375000", "095205.375000", "095205.375000", "095205.375000", "095205.390000", "095205.390000", "095205.390000", "095225.343000", "095225.343000", "095225.343000", "095225.343000", "095225.343000", "095225.359000", "095225.359000", "095225.359000", "095225.359000", "095225.359000", "095225.359000", "095225.359000", "095225.375000", "095225.375000", "095225.375000", "095225.375000", "095225.375000", "095225.375000", "095225.375000", "095225.390000", "095245.343000", "095245.343000", "095245.343000", "095245.343000", "095245.343000", "095245.359000", "095245.359000", "095245.359000", "095245.359000", "095245.359000", "095245.359000", "095245.375000", "095245.375000", "095245.375000", "095245.375000", "095245.375000", "095245.375000", "095245.375000", "095245.375000", "095245.390000", "095305.343000", "095305.343000", "095305.343000", "095305.343000", "095305.343000", "095305.359000", "095305.359000", "095305.359000", "095305.359000", "095305.359000", "095305.359000", "095305.375000", "095305.390000", "095305.390000", "095305.390000", "095305.390000", "095305.390000", "095305.390000", "095305.390000", "095305.390000", "095325.343000", "095325.343000", "095325.343000", "095325.343000", "095325.343000", "095325.359000", "095325.359000", "095325.359000", "095325.359000", "095325.359000", "095325.359000", "095325.359000", "095325.375000", "095325.375000", "095325.375000", "095325.375000", "095325.375000", "095325.375000", "095325.390000", "095325.390000", "095345.343000", "095345.343000", "095345.343000", "095345.343000", "095345.343000", "095345.359000", "095345.359000", "095345.359000", "095345.359000", "095345.359000", "095345.359000", "095345.359000", "095345.375000", "095345.375000", "095345.375000", "095345.375000", "095345.375000", "095345.375000", "095345.375000", "095345.390000", "095405.343000", "095405.343000", "095405.343000", "095405.343000", "095405.343000", "095405.359000", "095405.359000", "095405.359000", "095405.359000", "095405.359000", "095405.359000", "095405.359000", "095405.375000", "095405.375000", "095405.375000", "095405.375000", "095405.375000", "095405.375000", "095405.375000", "095405.390000", "095425.343000", "095425.343000", "095425.343000", "095425.343000", "095425.343000", "095425.359000", "095425.359000", "095425.359000", "095425.359000", "095425.359000", "095425.359000", "095425.359000", "095425.359000", "095425.375000", "095425.375000", "095425.375000", "095425.375000", "095425.375000", "095425.375000", "095425.390000", "095445.343000", "095445.343000", "095445.343000", "095445.343000", "095445.343000", "095445.359000", "095445.359000", "095445.359000", "095445.359000", "095445.359000", "095445.359000", "095445.359000", "095445.359000", "095445.375000", "095445.375000", "095445.375000", "095445.375000", "095445.390000", "095445.390000", "095445.390000", "095505.343000", "095505.343000", "095505.359000", "095505.359000", "095505.359000", "095505.359000", "095505.359000", "095505.359000", "095505.359000", "095505.375000", "095505.375000", "095505.375000", "095505.375000", "095505.375000", "095505.375000", "095505.375000", "095505.390000", "095505.390000", "095505.390000", "095505.390000", "095525.343000", "095525.343000", "095525.343000", "095525.343000", "095525.359000", "095525.359000", "095525.359000", "095525.359000", "095525.359000", "095525.359000", "095525.375000", "095525.375000", "095525.375000", "095525.375000", "095525.375000", "095525.375000", "095525.375000", "095525.390000", "095525.390000", "095525.390000", "095543.578000", "095543.593000", "095543.593000", "095543.593000", "095543.593000", "095543.593000", "095543.593000", "095543.593000", "095543.609000", "095543.609000", "095543.609000", "095543.609000", "095543.609000", "095543.609000"],
      "InstanceNumber": [1, 2, 3, 4, 5, 6, 7, 8, 9, 10, 11, 12, 13, 14, 15, 16, 17, 18, 19, 20, 21, 22, 23, 24, 25, 26, 27, 28, 29, 30, 31, 32, 33, 34, 35, 36, 37, 38, 39, 40, 41, 42, 43, 44, 45, 46, 47, 48, 49, 50, 51, 52, 53, 54, 55, 56, 57, 58, 59, 60, 61, 62, 63, 64, 65, 66, 67, 68, 69, 70, 71, 72, 73, 74, 75, 76, 77, 78, 79, 80, 81, 82, 83, 84, 85, 86, 87, 88, 89, 90, 91, 92, 93, 94, 95, 96, 97, 98, 99, 100, 101, 102, 103, 104, 105, 106, 107, 108, 109, 110, 111, 112, 113, 114, 115, 116, 117, 118, 119, 120, 121, 122, 123, 124, 125, 126, 127, 128, 129, 130, 131, 132, 133, 134, 135, 136, 137, 138, 139, 140, 141, 142, 143, 144, 145, 146, 147, 148, 149, 150, 151, 152, 153, 154, 155, 156, 157, 158, 159, 160, 161, 162, 163, 164, 165, 166, 167, 168, 169, 170, 171, 172, 173, 174, 175, 176, 177, 178, 179, 180, 181, 182, 183, 184, 185, 186, 187, 188, 189, 190, 191, 192, 193, 194, 195, 196, 197, 198, 199, 200, 201, 202, 203, 204, 205, 206, 207, 208, 209, 210, 211, 212, 213, 214, 215, 216, 217, 218, 219, 220, 221, 222, 223, 224, 225, 226, 227, 228, 229, 230, 231, 232, 233, 234, 235, 236, 237, 238, 239, 240, 241, 242, 243, 244, 245, 246, 247, 248, 249, 250, 251, 252, 253, 254, 255, 256, 257, 258, 259, 260, 261, 262, 263, 264, 265, 266, 267, 268, 269, 270, 271, 272, 273, 274, 275, 276, 277, 278, 279, 280, 281, 282, 283, 284, 285, 286, 287, 288, 289, 290, 291, 292, 293, 294, 295, 296, 297, 298, 299, 300, 301, 302, 303, 304, 305, 306, 307, 308, 309, 310, 311, 312, 313, 314, 315, 316, 317, 318, 319, 320, 321, 322, 323, 324, 325, 326, 327, 328, 329, 330],
      "LargestImagePixelValue": [1711, 1737, 1663, 1673, 1683, 1660, 1667, 1665, 1697, 1649, 1742, 1703, 1675, 1650, 1670, 1680, 1671, 1710, 1704, 1664, 1659, 1667, 1686, 1654, 1667, 1678, 1649, 1677, 1713, 1691, 1694, 1678, 1674, 1677, 1674, 1702, 1688, 1720, 1683, 1688, 1689, 1688, 1657, 1665, 1662, 1692, 1686, 1723, 1693, 1690, 1670, 1691, 1682, 1686, 1695, 1676, 1717, 1703, 1703, 1705, 1684, 1710, 1710, 1696, 1706, 1706, 1706, 1682, 1679, 1694, 1713, 1694, 1699, 1707, 1676, 1675, 1698, 1686, 1684, 1660, 1683, 1690, 1670, 1671, 1661, 1661, 1703, 1666, 1670, 1724, 1694, 1666, 1703, 1659, 1661, 1670, 1677, 1656, 1648, 1664, 1669, 1677, 1671, 1655, 1657, 1675, 1678, 1678, 1657, 1673, 1667, 1696, 1696, 1660, 1677, 1665, 1683, 1677, 1671, 1692, 1691, 1660, 1670, 1694, 1669, 1678, 1706, 1681, 1661, 1658, 1660, 1660, 1706, 1689, 1645, 1710, 1681, 1677, 1679, 1686, 1694, 1689, 1682, 1661, 1651, 1634, 1696, 1654, 1685, 1712, 1688, 1689, 1683, 1671, 1654, 1646, 1673, 1645, 1656, 1654, 1660, 1668, 1667, 1665, 1655, 1633, 1662, 1636, 1660, 1655, 1661, 1650, 1671, 1664, 1648, 1656, 1666, 1650, 1640, 1674, 1695, 1662, 1644, 1625, 1680, 1618, 1656, 1684, 1659, 1645, 1644, 1711, 1635, 1628, 1674, 1614, 1653, 1645, 1601, 1586, 1574, 1565, 1585, 1601, 1591, 1660, 1662, 1640, 1641, 1605, 1605, 1649, 1655, 1619, 1598, 1647, 1634, 1588, 1624, 1618, 1583, 1681, 1590, 1645, 1576, 1547, 1579, 1594, 1579, 1607, 1625, 1639, 1669, 1575, 1563, 1621, 1628, 1579, 1599, 1596, 1587, 1599, 1617, 1554, 1587, 1709, 1663, 1643, 1650, 1661, 1668, 1666, 1687, 1643, 1660, 1677, 1656, 1668, 1659, 1655, 1658, 1606, 1620, 1605, 1626, 1682, 1634, 1628, 1617, 1649, 1625, 1626, 1624, 1602, 1632, 1597, 1569, 1560, 1590, 1587, 1625, 1646, 1611, 1625, 1630, 1632, 1631, 1598, 1579, 1596, 1611, 1606, 1667, 1627, 1604, 1622, 1654, 1592, 1590, 1559, 1586, 1583, 1633, 1572, 1600, 1632, 1595, 1587, 1595, 1573, 1569, 1592, 1570, 1554, 1575, 1601, 1566, 1568, 1570, 1542, 1542, 1568, 1546, 1580, 1584, 1574, 1544, 1570, 1570, 1565],
      "WindowCenter": [371.0, 370.0, 370.0, 370.0, 370.0, 368.0, 369.0, 369.0, 369.0, 370.0, 370.0, 369.0, 370.0, 371.0, 371.0, 370.0, 371.0, 371.0, 371.0, 371.0, 371.0, 371.0, 369.0, 369.0, 368.0, 368.0, 368.0, 369.0, 370.0, 370.0, 370.0, 369.0, 369.0, 369.0, 369.0, 369.0, 370.0, 370.0, 371.0, 372.0, 371.0, 370.0, 369.0, 369.0, 368.0, 369.0, 369.0, 369.0, 369.0, 369.0, 369.0, 369.0, 369.0, 370.0, 369.0, 370.0, 370.0, 369.0, 369.0, 369.0, 369.0, 370.0, 371.0, 370.0, 370.0, 370.0, 370.0, 370.0, 371.0, 372.0, 372.0, 371.0, 371.0, 370.0, 369.0, 369.0, 369.0, 369.0, 371.0, 369.0, 369.0, 371.0, 372.0, 370.0, 369.0, 369.0, 369.0, 369.0, 369.0, 369.0, 369.0, 370.0, 370.0, 369.0, 370.0, 371.0, 370.0, 371.0, 371.0, 370.0, 370.0, 370.0, 369.0, 369.0, 370.0, 369.0, 370.0, 370.0, 370.0, 370.0, 370.0, 370.0, 370.0, 370.0, 370.0, 370.0, 370.0, 371.0, 370.0, 371.0, 371.0, 370.0, 369.0, 370.0, 370.0, 369.0, 371.0, 371.0, 370.0, 369.0, 369.0, 369.0, 369.0, 369.0, 371.0, 371.0, 372.0, 372.0, 371.0, 371.0, 371.0, 369.0, 369.0, 369.0, 368.0, 368.0, 370.0, 370.0, 370.0, 371.0, 371.0, 369.0, 368.0, 368.0, 368.0, 369.0, 369.0, 369.0, 369.0, 370.0, 369.0, 370.0, 370.0, 371.0, 372.0, 371.0, 370.0, 369.0, 370.0, 369.0, 370.0, 371.0, 371.0, 372.0, 372.0, 371.0, 370.0, 370.0, 370.0, 370.0, 371.0, 371.0, 371.0, 371.0, 371.0, 370.0, 369.0, 369.0, 369.0, 369.0, 368.0, 369.0, 369.0, 369.0, 370.0, 371.0, 369.0, 369.0, 368.0, 368.0, 368.0, 369.0, 369.0, 369.0, 370.0, 370.0, 369.0, 370.0, 369.0, 369.0, 369.0, 369.0, 370.0, 369.0, 369.0, 369.0, 369.0, 369.0, 370.0, 371.0, 370.0, 370.0, 370.0, 369.0, 368.0, 369.0, 369.0, 369.0, 369.0, 368.0, 368.0, 368.0, 369.0, 369.0, 369.0, 370.0, 370.0, 370.0, 369.0, 369.0, 369.0, 369.0, 370.0, 369.0, 370.0, 370.0, 370.0, 370.0, 370.0, 370.0, 371.0, 370.0, 370.0, 371.0, 370.0, 371.0, 371.0, 371.0, 371.0, 371.0, 370.0, 369.0, 370.0, 370.0, 371.0, 372.0, 372.0, 370.0, 370.0, 369.0, 371.0, 370.0, 371.0, 370.0, 369.0, 368.0, 368.0, 369.0, 369.0, 369.0, 369.0, 369.0, 369.0, 369.0, 369.0, 370.0, 369.0, 370.0, 370.0, 370.0, 370.0, 370.0, 369.0, 369.0, 370.0, 369.0, 370.0, 370.0, 370.0, 368.0, 369.0, 370.0, 370.0, 370.0, 370.0, 370.0, 370.0, 369.0, 369.0, 369.0, 369.0, 369.0, 369.0, 370.0, 369.0, 369.0, 370.0, 370.0, 370.0, 370.0, 370.0, 370.0, 370.0, 371.0, 370.0, 370.0, 370.0, 369.0, 369.0, 369.0],
