{
  "AcquisitionMatrixPE": 104,
  "AcquisitionNumber": 1,
  "AcquisitionTime": "09:21:51.867500",
  "BandwidthPerPixelPhaseEncode": 43.054,
  "BaseResolution": 104,
  "CoilString": "C:E1_2",
  "ConversionSoftware": "dcm2niix",
  "ConversionSoftwareVersion": "v1.0.20191031",
  "DerivedVendorReportedEchoSpacing": 0.000669999,
  "DeviceSerialNumber": "18932",
  "DwellTime": 2.8e-06,
  "EchoTime": 0.02,
  "EffectiveEchoSpacing": 0.000223333,
  "FlipAngle": 30,
  "ImageComments": "Unaliased_MB2_PE2",
  "ImageOrientationPatientDICOM": [1, 2e-16, 0, -2e-16, 0.965926, -0.258819],
  "ImageType": [
    "ORIGINAL",
    "PRIMARY",
    "M",
    "MB",
    "ND",
    "MOSAIC"
],
  "ImagingFrequency": 297.23,
  "InPlanePhaseEncodingDirectionDICOM": "COL",
  "InstitutionAddress": "Richmond_Street_North_1151_London_409EF2_Ontario_CA_N6A_5B7",
  "InstitutionName": "Robarts_Reserch_Institute",
  "InstitutionalDepartmentName": "Department",
  "MRAcquisitionType": "2D",
  "MagneticFieldStrength": 6.98,
  "Manufacturer": "Siemens",
  "ManufacturersModelName": "Investigational_Device_7T",
  "Modality": "MR",
  "MultibandAccelerationFactor": 2,
  "ParallelReductionFactorInPlane": 3,
  "PartialFourier": 0.875,
  "PatientPosition": "HFS",
  "PercentPhaseFOV": 100,
  "PhaseEncodingDirection": "j-",
  "PhaseEncodingSteps": 91,
  "PhaseResolution": 1,
  "PixelBandwidth": 1717,
  "ProcedureStepDescription": "Diedrichsen_SeqRep4",
  "ProtocolName": "mbep2d_bold_mb2_p3_AP_2iso",
  "PulseSequenceDetails": "%CustomerSeq%_cmrr_mbep2d_bold",
  "ReceiveCoilName": "CFMM_8Tx32Rx",
  "ReconMatrixPE": 104,
  "RefLinesPE": 36,
  "RepetitionTime": 1,
  "ScanOptions": "PFP_FS",
  "ScanningSequence": "EP",
  "SequenceName": "epfid2d1_104",
  "SequenceVariant": "SK_SS",
  "SeriesDescription": "mbep2d_bold_mb2_p3_AP_2iso",
  "SeriesNumber": 12,
  "ShimSetting": [-5, 1998, 309, 43, -98, -114, -302, -166],
  "SliceThickness": 2,
  "SliceTiming": [0, 0.2275, 0.4575, 0.685, 0.9125, 0.1375, 0.365, 0.5925, 0.8225, 0.045, 0.275, 0.5025, 0.73, 0.9575, 0.1825, 0.41, 0.64, 0.8675, 0.0925, 0.32, 0.5475, 0.775, 0, 0.2275, 0.4575, 0.685, 0.9125, 0.1375, 0.365, 0.5925, 0.8225, 0.045, 0.275, 0.5025, 0.73, 0.9575, 0.1825, 0.41, 0.64, 0.8675, 0.0925, 0.32, 0.5475, 0.775],
  "SoftwareVersions": "syngo_MR_B17",
  "SpacingBetweenSlices": 2,
  "StationName": "MASTER",
  "TaskName": "dsp",
  "TotalReadoutTime": 0.0230033,
  "TxRefAmp": 120,
  "dcmmeta_affine": [
    [-2.0, -4.000000067449534e-16, 1.035276159788667e-16, 103.27360534667969],
    [-4.000000067449534e-16, 1.9318516254425049, -0.517638087272644, -100.47244262695312],
    [0.0, 0.517638087272644, 1.9318516254425049, -65.80461883544922],
    [0.0, 0.0, 0.0, 1.0]
],
  "dcmmeta_reorient_transform": [
    [0.0, -1.0, 0.0, 103.0],
    [1.0, 0.0, 0.0, 0.0],
    [0.0, 0.0, 1.0, 0.0],
    [0.0, 0.0, 0.0, 1.0]
],
  "dcmmeta_shape": [104, 104, 44, 330],
  "dcmmeta_slice_dim": 2,
  "dcmmeta_version": 0.6,
  "global": {
    "const": {
      "AcquisitionMatrix": [104, 0, 0, 104],
      "AngioFlag": "N",
      "BitsAllocated": 16,
      "BitsStored": 12,
      "Columns": 728,
      "EchoNumbers": 1,
      "EchoTime": 20.0,
      "EchoTrainLength": 1,
      "FlipAngle": 30.0,
      "HighBit": 11,
      "ImageOrientationPatient": [1.0, 2e-16, 0.0, -2e-16, 0.9659258278573, -0.2588190392498],
      "ImagePositionPatient": [-727.27360773087, -701.24599295073, 149.01518168592],
      "ImageType": [
        "ORIGINAL",
        "PRIMARY",
        "M",
        "MB",
        "ND",
        "MOSAIC"
],
      "ImagedNucleus": "1H",
      "ImagingFrequency": 297.229838,
      "InPlanePhaseEncodingDirection": "COL",
      "MRAcquisitionType": "2D",
      "MagneticFieldStrength": 6.98,
      "Manufacturer": "SIEMENS",
      "ManufacturerModelName": "Investigational_Device_7T",
      "Modality": "MR",
      "NumberOfAverages": 1.0,
      "NumberOfPhaseEncodingSteps": 91,
      "PercentPhaseFieldOfView": 100.0,
      "PercentSampling": 100.0,
      "PerformedProcedureStepStartTime": "091301.203000",
      "PhotometricInterpretation": "MONOCHROME2",
      "PixelBandwidth": 1717.0,
      "PixelRepresentation": 0,
      "PixelSpacing": [2.0, 2.0],
      "ProtocolName": "mbep2d_bold_mb2_p3_AP 2iso",
      "RepetitionTime": 1000.0,
      "Rows": 728,
      "SAR": 0.0,
      "SamplesPerPixel": 1,
      "ScanOptions": [
        "PFP",
        "FS"
],
      "ScanningSequence": "EP",
      "SequenceName": "epfid2d1_104",
      "SequenceVariant": [
        "SK",
        "SS"
],
      "SeriesDescription": "mbep2d_bold_mb2_p3_AP 2iso",
      "SeriesNumber": 12,
      "SeriesTime": "092225.359000",
      "SliceLocation": -37.558201440006,
      "SliceThickness": 2.0,
      "SmallestImagePixelValue": 0,
      "SoftwareVersions": "syngo MR B17",
      "SpacingBetweenSlices": 2.0000000219488,
      "SpecificCharacterSet": "ISO_IR 100",
      "StudyID": "1",
      "StudyTime": "091301.140000",
      "TransmitCoilName": "CFMM_8Tx32Rx",
      "VariableFlipAngleFlag": "N",
      "WindowCenterWidthExplanation": "Algo1",
      "dBdt": 0.0},
    "slices": {}
  },
  "time": {
    "samples": {
      "AcquisitionNumber": [1, 2, 3, 4, 5, 6, 7, 8, 9, 10, 11, 12, 13, 14, 15, 16, 17, 18, 19, 20, 21, 22, 23, 24, 25, 26, 27, 28, 29, 30, 31, 32, 33, 34, 35, 36, 37, 38, 39, 40, 41, 42, 43, 44, 45, 46, 47, 48, 49, 50, 51, 52, 53, 54, 55, 56, 57, 58, 59, 60, 61, 62, 63, 64, 65, 66, 67, 68, 69, 70, 71, 72, 73, 74, 75, 76, 77, 78, 79, 80, 81, 82, 83, 84, 85, 86, 87, 88, 89, 90, 91, 92, 93, 94, 95, 96, 97, 98, 99, 100, 101, 102, 103, 104, 105, 106, 107, 108, 109, 110, 111, 112, 113, 114, 115, 116, 117, 118, 119, 120, 121, 122, 123, 124, 125, 126, 127, 128, 129, 130, 131, 132, 133, 134, 135, 136, 137, 138, 139, 140, 141, 142, 143, 144, 145, 146, 147, 148, 149, 150, 151, 152, 153, 154, 155, 156, 157, 158, 159, 160, 161, 162, 163, 164, 165, 166, 167, 168, 169, 170, 171, 172, 173, 174, 175, 176, 177, 178, 179, 180, 181, 182, 183, 184, 185, 186, 187, 188, 189, 190, 191, 192, 193, 194, 195, 196, 197, 198, 199, 200, 201, 202, 203, 204, 205, 206, 207, 208, 209, 210, 211, 212, 213, 214, 215, 216, 217, 218, 219, 220, 221, 222, 223, 224, 225, 226, 227, 228, 229, 230, 231, 232, 233, 234, 235, 236, 237, 238, 239, 240, 241, 242, 243, 244, 245, 246, 247, 248, 249, 250, 251, 252, 253, 254, 255, 256, 257, 258, 259, 260, 261, 262, 263, 264, 265, 266, 267, 268, 269, 270, 271, 272, 273, 274, 275, 276, 277, 278, 279, 280, 281, 282, 283, 284, 285, 286, 287, 288, 289, 290, 291, 292, 293, 294, 295, 296, 297, 298, 299, 300, 301, 302, 303, 304, 305, 306, 307, 308, 309, 310, 311, 312, 313, 314, 315, 316, 317, 318, 319, 320, 321, 322, 323, 324, 325, 326, 327, 328, 329, 330],
      "AcquisitionTime": ["092151.867500", "092152.872500", "092153.875000", "092154.880000", "092155.885000", "092156.887500", "092157.892500", "092158.895000", "092159.900000", "092200.905000", "092201.907500", "092202.912500", "092203.915000", "092204.920000", "092205.925000", "092206.927500", "092207.932500", "092208.935000", "092209.940000", "092210.945000", "092211.947500", "092212.952500", "092213.955000", "092214.960000", "092215.965000", "092216.967500", "092217.972500", "092218.975000", "092219.980000", "092220.985000", "092221.987500", "092222.992500", "092223.997500", "092225.000000", "092226.005000", "092227.007500", "092228.012500", "092229.017500", "092230.020000", "092231.025000", "092232.027500", "092233.032500", "092234.037500", "092235.040000", "092236.045000", "092237.047500", "092238.052500", "092239.057500", "092240.060000", "092241.065000", "092242.067500", "092243.072500", "092244.077500", "092245.080000", "092246.085000", "092247.087500", "092248.092500", "092249.097500", "092250.100000", "092251.105000", "092252.107500", "092253.112500", "092254.117500", "092255.120000", "092256.125000", "092257.130000", "092258.132500", "092259.137500", "092300.140000", "092301.145000", "092302.150000", "092303.152500", "092304.157500", "092305.160000", "092306.165000", "092307.170000", "092308.172500", "092309.177500", "092310.180000", "092311.185000", "092312.190000", "092313.192500", "092314.197500", "092315.200000", "092316.205000", "092317.210000", "092318.212500", "092319.217500", "092320.220000", "092321.225000", "092322.230000", "092323.232500", "092324.237500", "092325.242500", "092326.245000", "092327.250000", "092328.252500", "092329.257500", "092330.262500", "092331.265000", "092332.270000", "092333.272500", "092334.277500", "092335.282500", "092336.285000", "092337.290000", "092338.292500", "092339.297500", "092340.302500", "092341.305000", "092342.310000", "092343.312500", "092344.317500", "092345.322500", "092346.325000", "092347.330000", "092348.332500", "092349.337500", "092350.342500", "092351.345000", "092352.350000", "092353.352500", "092354.357500", "092355.362500", "092356.365000", "092357.370000", "092358.375000", "092359.377500", "092400.382500", "092401.385000", "092402.390000", "092403.395000", "092404.397500", "092405.402500", "092406.405000", "092407.410000", "092408.415000", "092409.417500", "092410.422500", "092411.425000", "092412.430000", "092413.435000", "092414.437500", "092415.442500", "092416.445000", "092417.450000", "092418.455000", "092419.457500", "092420.462500", "092421.465000", "092422.470000", "092423.475000", "092424.477500", "092425.482500", "092426.487500", "092427.490000", "092428.495000", "092429.497500", "092430.502500", "092431.507500", "092432.510000", "092433.515000", "092434.517500", "092435.522500", "092436.527500", "092437.530000", "092438.535000", "092439.537500", "092440.542500", "092441.547500", "092442.550000", "092443.555000", "092444.557500", "092445.562500", "092446.567500", "092447.570000", "092448.575000", "092449.577500", "092450.582500", "092451.587500", "092452.590000", "092453.595000", "092454.597500", "092455.602500", "092456.607500", "092457.610000", "092458.615000", "092459.620000", "092500.622500", "092501.627500", "092502.630000", "092503.635000", "092504.640000", "092505.642500", "092506.647500", "092507.650000", "092508.655000", "092509.660000", "092510.662500", "092511.667500", "092512.670000", "092513.675000", "092514.680000", "092515.682500", "092516.687500", "092517.690000", "092518.695000", "092519.700000", "092520.702500", "092521.707500", "092522.710000", "092523.715000", "092524.720000", "092525.722500", "092526.727500", "092527.730000", "092528.735000", "092529.740000", "092530.742500", "092531.747500", "092532.752500", "092533.755000", "092534.760000", "092535.762500", "092536.767500", "092537.772500", "092538.775000", "092539.780000", "092540.782500", "092541.787500", "092542.792500", "092543.795000", "092544.800000", "092545.802500", "092546.807500", "092547.812500", "092548.815000", "092549.820000", "092550.822500", "092551.827500", "092552.832500", "092553.835000", "092554.840000", "092555.842500", "092556.847500", "092557.852500", "092558.855000", "092559.860000", "092600.865000", "092601.867500", "092602.872500", "092603.875000", "092604.880000", "092605.885000", "092606.887500", "092607.892500", "092608.895000", "092609.900000", "092610.905000", "092611.907500", "092612.912500", "092613.915000", "092614.920000", "092615.925000", "092616.927500", "092617.932500", "092618.935000", "092619.940000", "092620.945000", "092621.947500", "092622.952500", "092623.955000", "092624.960000", "092625.965000", "092626.967500", "092627.972500", "092628.975000", "092629.980000", "092630.985000", "092631.987500", "092632.992500", "092633.997500", "092635.000000", "092636.005000", "092637.007500", "092638.012500", "092639.017500", "092640.020000", "092641.025000", "092642.027500", "092643.032500", "092644.037500", "092645.040000", "092646.045000", "092647.047500", "092648.052500", "092649.057500", "092650.060000", "092651.065000", "092652.067500", "092653.072500", "092654.077500", "092655.080000", "092656.085000", "092657.087500", "092658.092500", "092659.097500", "092700.100000", "092701.105000", "092702.107500", "092703.112500", "092704.117500", "092705.120000", "092706.125000", "092707.130000", "092708.132500", "092709.137500", "092710.140000", "092711.145000", "092712.150000", "092713.152500", "092714.157500", "092715.160000", "092716.165000", "092717.170000", "092718.172500", "092719.177500", "092720.180000", "092721.185000", "092722.190000"],
      "ContentTime": ["092225.359000", "092225.359000", "092225.359000", "092225.359000", "092225.359000", "092225.375000", "092225.375000", "092225.375000", "092225.375000", "092225.375000", "092225.375000", "092225.375000", "092225.390000", "092225.390000", "092225.390000", "092225.390000", "092225.390000", "092225.390000", "092225.390000", "092225.406000", "092225.406000", "092225.406000", "092225.406000", "092225.406000", "092225.406000", "092225.406000", "092225.421000", "092225.421000", "092225.421000", "092225.421000", "092225.421000", "092225.421000", "092245.312000", "092245.312000", "092245.312000", "092245.312000", "092245.312000", "092245.328000", "092245.328000", "092245.328000", "092245.328000", "092245.328000", "092245.328000", "092245.328000", "092245.343000", "092245.343000", "092245.343000", "092245.343000", "092245.343000", "092245.343000", "092245.343000", "092245.343000", "092305.312000", "092305.312000", "092305.312000", "092305.328000", "092305.328000", "092305.328000", "092305.328000", "092305.328000", "092305.328000", "092305.343000", "092305.343000", "092305.343000", "092305.343000", "092305.343000", "092305.343000", "092305.343000", "092305.343000", "092305.359000", "092305.359000", "092305.359000", "092325.312000", "092325.312000", "092325.312000", "092325.312000", "092325.312000", "092325.328000", "092325.328000", "092325.328000", "092325.328000", "092325.328000", "092325.328000", "092325.328000", "092325.328000", "092325.343000", "092325.343000", "092325.343000", "092325.343000", "092325.343000", "092325.343000", "092325.343000", "092345.312000", "092345.312000", "092345.312000", "092345.328000", "092345.328000", "092345.328000", "092345.328000", "092345.328000", "092345.328000", "092345.328000", "092345.343000", "092345.343000", "092345.343000", "092345.343000", "092345.343000", "092345.343000", "092345.359000", "092345.359000", "092345.359000", "092345.375000", "092405.312000", "092405.312000", "092405.328000", "092405.328000", "092405.343000", "092405.343000", "092405.343000", "092405.343000", "092405.343000", "092405.343000", "092405.343000", "092405.343000", "092405.359000", "092405.359000", "092405.359000", "092405.359000", "092405.359000", "092405.359000", "092405.359000", "092405.375000", "092425.312000", "092425.312000", "092425.312000", "092425.312000", "092425.312000", "092425.328000", "092425.328000", "092425.328000", "092425.328000", "092425.328000", "092425.328000", "092425.328000", "092425.328000", "092425.343000", "092425.343000", "092425.343000", "092425.343000", "092425.343000", "092425.343000", "092425.343000", "092445.312000", "092445.312000", "092445.312000", "092445.328000", "092445.328000", "092445.328000", "092445.328000", "092445.328000", "092445.328000", "092445.328000", "092445.343000", "092445.343000", "092445.343000", "092445.343000", "092445.343000", "092445.343000", "092445.343000", "092445.343000", "092445.359000", "092445.359000", "092505.312000", "092505.328000", "092505.328000", "092505.343000", "092505.343000", "092505.343000", "092505.359000", "092505.359000", "092505.359000", "092505.359000", "092505.359000", "092505.375000", "092505.375000", "092505.375000", "092505.375000", "092505.375000", "092505.375000", "092505.375000", "092505.390000", "092505.390000", "092525.312000", "092525.312000", "092525.312000", "092525.312000", "092525.328000", "092525.328000", "092525.328000", "092525.328000", "092525.328000", "092525.328000", "092525.328000", "092525.343000", "092525.343000", "092525.343000", "092525.343000", "092525.343000", "092525.343000", "092525.343000", "092525.359000", "092525.359000", "092545.312000", "092545.328000", "092545.328000", "092545.328000", "092545.343000", "092545.343000", "092545.343000", "092545.343000", "092545.343000", "092545.359000", "092545.359000", "092545.359000", "092545.359000", "092545.359000", "092545.375000", "092545.375000", "092545.375000", "092545.375000", "092545.375000", "092545.375000", "092605.312000", "092605.312000", "092605.312000", "092605.312000", "092605.312000", "092605.328000", "092605.328000", "092605.328000", "092605.343000", "092605.343000", "092605.343000", "092605.343000", "092605.343000", "092605.343000", "092605.343000", "092605.359000", "092605.359000", "092605.359000", "092605.359000", "092605.359000", "092625.312000", "092625.312000", "092625.312000", "092625.312000", "092625.312000", "092625.328000", "092625.328000", "092625.328000", "092625.328000", "092625.328000", "092625.328000", "092625.328000", "092625.328000", "092625.343000", "092625.343000", "092625.343000", "092625.343000", "092625.343000", "092625.343000", "092625.343000", "092645.312000", "092645.312000", "092645.312000", "092645.312000", "092645.312000", "092645.328000", "092645.328000", "092645.328000", "092645.328000", "092645.328000", "092645.328000", "092645.328000", "092645.343000", "092645.343000", "092645.343000", "092645.343000", "092645.343000", "092645.343000", "092645.343000", "092645.359000", "092705.312000", "092705.312000", "092705.312000", "092705.312000", "092705.312000", "092705.312000", "092705.328000", "092705.328000", "092705.328000", "092705.328000", "092705.328000", "092705.343000", "092705.343000", "092705.343000", "092705.343000", "092705.343000", "092705.359000", "092705.359000", "092705.359000", "092705.359000", "092727.312000", "092727.312000", "092727.312000", "092727.312000", "092727.312000", "092727.328000", "092727.328000", "092727.328000", "092727.328000", "092727.328000", "092727.328000", "092727.328000", "092727.343000", "092727.343000", "092727.343000", "092727.343000", "092727.343000", "092727.343000"],
      "InstanceCreationTime": ["092225.359000", "092225.359000", "092225.359000", "092225.359000", "092225.359000", "092225.375000", "092225.375000", "092225.375000", "092225.375000", "092225.375000", "092225.375000", "092225.375000", "092225.390000", "092225.390000", "092225.390000", "092225.390000", "092225.390000", "092225.390000", "092225.390000", "092225.406000", "092225.406000", "092225.406000", "092225.406000", "092225.406000", "092225.406000", "092225.406000", "092225.421000", "092225.421000", "092225.421000", "092225.421000", "092225.421000", "092225.421000", "092245.312000", "092245.312000", "092245.312000", "092245.312000", "092245.312000", "092245.328000", "092245.328000", "092245.328000", "092245.328000", "092245.328000", "092245.328000", "092245.328000", "092245.343000", "092245.343000", "092245.343000", "092245.343000", "092245.343000", "092245.343000", "092245.343000", "092245.343000", "092305.312000", "092305.312000", "092305.312000", "092305.328000", "092305.328000", "092305.328000", "092305.328000", "092305.328000", "092305.328000", "092305.343000", "092305.343000", "092305.343000", "092305.343000", "092305.343000", "092305.343000", "092305.343000", "092305.343000", "092305.359000", "092305.359000", "092305.359000", "092325.312000", "092325.312000", "092325.312000", "092325.312000", "092325.312000", "092325.328000", "092325.328000", "092325.328000", "092325.328000", "092325.328000", "092325.328000", "092325.328000", "092325.328000", "092325.343000", "092325.343000", "092325.343000", "092325.343000", "092325.343000", "092325.343000", "092325.343000", "092345.312000", "092345.312000", "092345.312000", "092345.328000", "092345.328000", "092345.328000", "092345.328000", "092345.328000", "092345.328000", "092345.328000", "092345.343000", "092345.343000", "092345.343000", "092345.343000", "092345.343000", "092345.343000", "092345.359000", "092345.359000", "092345.359000", "092345.375000", "092405.312000", "092405.312000", "092405.328000", "092405.328000", "092405.343000", "092405.343000", "092405.343000", "092405.343000", "092405.343000", "092405.343000", "092405.343000", "092405.343000", "092405.359000", "092405.359000", "092405.359000", "092405.359000", "092405.359000", "092405.359000", "092405.359000", "092405.375000", "092425.312000", "092425.312000", "092425.312000", "092425.312000", "092425.312000", "092425.328000", "092425.328000", "092425.328000", "092425.328000", "092425.328000", "092425.328000", "092425.328000", "092425.328000", "092425.343000", "092425.343000", "092425.343000", "092425.343000", "092425.343000", "092425.343000", "092425.343000", "092445.312000", "092445.312000", "092445.312000", "092445.328000", "092445.328000", "092445.328000", "092445.328000", "092445.328000", "092445.328000", "092445.328000", "092445.343000", "092445.343000", "092445.343000", "092445.343000", "092445.343000", "092445.343000", "092445.343000", "092445.343000", "092445.359000", "092445.359000", "092505.312000", "092505.328000", "092505.328000", "092505.343000", "092505.343000", "092505.343000", "092505.359000", "092505.359000", "092505.359000", "092505.359000", "092505.359000", "092505.375000", "092505.375000", "092505.375000", "092505.375000", "092505.375000", "092505.375000", "092505.375000", "092505.390000", "092505.390000", "092525.312000", "092525.312000", "092525.312000", "092525.312000", "092525.328000", "092525.328000", "092525.328000", "092525.328000", "092525.328000", "092525.328000", "092525.328000", "092525.343000", "092525.343000", "092525.343000", "092525.343000", "092525.343000", "092525.343000", "092525.343000", "092525.359000", "092525.359000", "092545.312000", "092545.328000", "092545.328000", "092545.328000", "092545.343000", "092545.343000", "092545.343000", "092545.343000", "092545.343000", "092545.359000", "092545.359000", "092545.359000", "092545.359000", "092545.359000", "092545.375000", "092545.375000", "092545.375000", "092545.375000", "092545.375000", "092545.375000", "092605.312000", "092605.312000", "092605.312000", "092605.312000", "092605.312000", "092605.328000", "092605.328000", "092605.328000", "092605.343000", "092605.343000", "092605.343000", "092605.343000", "092605.343000", "092605.343000", "092605.343000", "092605.359000", "092605.359000", "092605.359000", "092605.359000", "092605.359000", "092625.312000", "092625.312000", "092625.312000", "092625.312000", "092625.312000", "092625.328000", "092625.328000", "092625.328000", "092625.328000", "092625.328000", "092625.328000", "092625.328000", "092625.328000", "092625.343000", "092625.343000", "092625.343000", "092625.343000", "092625.343000", "092625.343000", "092625.343000", "092645.312000", "092645.312000", "092645.312000", "092645.312000", "092645.312000", "092645.328000", "092645.328000", "092645.328000", "092645.328000", "092645.328000", "092645.328000", "092645.328000", "092645.343000", "092645.343000", "092645.343000", "092645.343000", "092645.343000", "092645.343000", "092645.343000", "092645.359000", "092705.312000", "092705.312000", "092705.312000", "092705.312000", "092705.312000", "092705.312000", "092705.328000", "092705.328000", "092705.328000", "092705.328000", "092705.328000", "092705.343000", "092705.343000", "092705.343000", "092705.343000", "092705.343000", "092705.359000", "092705.359000", "092705.359000", "092705.359000", "092727.312000", "092727.312000", "092727.312000", "092727.312000", "092727.312000", "092727.328000", "092727.328000", "092727.328000", "092727.328000", "092727.328000", "092727.328000", "092727.328000", "092727.343000", "092727.343000", "092727.343000", "092727.343000", "092727.343000", "092727.343000"],
      "InstanceNumber": [1, 2, 3, 4, 5, 6, 7, 8, 9, 10, 11, 12, 13, 14, 15, 16, 17, 18, 19, 20, 21, 22, 23, 24, 25, 26, 27, 28, 29, 30, 31, 32, 33, 34, 35, 36, 37, 38, 39, 40, 41, 42, 43, 44, 45, 46, 47, 48, 49, 50, 51, 52, 53, 54, 55, 56, 57, 58, 59, 60, 61, 62, 63, 64, 65, 66, 67, 68, 69, 70, 71, 72, 73, 74, 75, 76, 77, 78, 79, 80, 81, 82, 83, 84, 85, 86, 87, 88, 89, 90, 91, 92, 93, 94, 95, 96, 97, 98, 99, 100, 101, 102, 103, 104, 105, 106, 107, 108, 109, 110, 111, 112, 113, 114, 115, 116, 117, 118, 119, 120, 121, 122, 123, 124, 125, 126, 127, 128, 129, 130, 131, 132, 133, 134, 135, 136, 137, 138, 139, 140, 141, 142, 143, 144, 145, 146, 147, 148, 149, 150, 151, 152, 153, 154, 155, 156, 157, 158, 159, 160, 161, 162, 163, 164, 165, 166, 167, 168, 169, 170, 171, 172, 173, 174, 175, 176, 177, 178, 179, 180, 181, 182, 183, 184, 185, 186, 187, 188, 189, 190, 191, 192, 193, 194, 195, 196, 197, 198, 199, 200, 201, 202, 203, 204, 205, 206, 207, 208, 209, 210, 211, 212, 213, 214, 215, 216, 217, 218, 219, 220, 221, 222, 223, 224, 225, 226, 227, 228, 229, 230, 231, 232, 233, 234, 235, 236, 237, 238, 239, 240, 241, 242, 243, 244, 245, 246, 247, 248, 249, 250, 251, 252, 253, 254, 255, 256, 257, 258, 259, 260, 261, 262, 263, 264, 265, 266, 267, 268, 269, 270, 271, 272, 273, 274, 275, 276, 277, 278, 279, 280, 281, 282, 283, 284, 285, 286, 287, 288, 289, 290, 291, 292, 293, 294, 295, 296, 297, 298, 299, 300, 301, 302, 303, 304, 305, 306, 307, 308, 309, 310, 311, 312, 313, 314, 315, 316, 317, 318, 319, 320, 321, 322, 323, 324, 325, 326, 327, 328, 329, 330],
      "LargestImagePixelValue": [1715, 1714, 1702, 1684, 1674, 1702, 1696, 1675, 1685, 1678, 1658, 1640, 1650, 1658, 1661, 1642, 1633, 1661, 1636, 1659, 1632, 1657, 1653, 1674, 1641, 1656, 1693, 1662, 1676, 1655, 1640, 1676, 1703, 1682, 1644, 1677, 1641, 1662, 1662, 1630, 1658, 1653, 1688, 1703, 1763, 1793, 1725, 1754, 1691, 1683, 1681, 1677, 1661, 1673, 1674, 1653, 1747, 1774, 1713, 1675, 1682, 1688, 1677, 1684, 1669, 1702, 1684, 1663, 1715, 1678, 1695, 1690, 1684, 1701, 1687, 1640, 1698, 1676, 1717, 1657, 1664, 1720, 1763, 1778, 1743, 1730, 1720, 1700, 1742, 1722, 1698, 1760, 1691, 1703, 1716, 1737, 1715, 1746, 1728, 1713, 1719, 1661, 1677, 1675, 1696, 1684, 1711, 1699, 1727, 1694, 1686, 1675, 1666, 1692, 1696, 1670, 1705, 1700, 1697, 1695, 1667, 1669, 1690, 1708, 1693, 1704, 1712, 1693, 1722, 1694, 1718, 1691, 1670, 1702, 1686, 1687, 1676, 1686, 1666, 1710, 1669, 1714, 1703, 1708, 1683, 1721, 1688, 1776, 1741, 1729, 1725, 1746, 1699, 1723, 1710, 1688, 1708, 1697, 1741, 1720, 1723, 1683, 1696, 1788, 1707, 1695, 1684, 1706, 1697, 1670, 1701, 1660, 1713, 1677, 1651, 1679, 1647, 1651, 1694, 1658, 1715, 1679, 1665, 1669, 1679, 1695, 1713, 1686, 1703, 1711, 1683, 1676, 1676, 1673, 1711, 1736, 1692, 1682, 1656, 1700, 1679, 1667, 1646, 1690, 1665, 1674, 1679, 1687, 1657, 1691, 1676, 1700, 1674, 1658, 1645, 1701, 1677, 1691, 1676, 1705, 1669, 1674, 1642, 1674, 1690, 1679, 1691, 1684, 1674, 1660, 1676, 1657, 1691, 1662, 1643, 1682, 1676, 1713, 1701, 1679, 1670, 1706, 1670, 1651, 1678, 1669, 1676, 1682, 1672, 1625, 1655, 1644, 1640, 1639, 1635, 1647, 1628, 1626, 1599, 1620, 1611, 1601, 1635, 1612, 1628, 1619, 1659, 1664, 1620, 1646, 1618, 1598, 1627, 1611, 1613, 1597, 1616, 1645, 1651, 1614, 1627, 1627, 1628, 1618, 1642, 1641, 1628, 1654, 1649, 1612, 1628, 1623, 1642, 1617, 1642, 1665, 1616, 1638, 1663, 1631, 1660, 1641, 1626, 1630, 1621, 1607, 1621, 1627, 1618, 1632, 1608, 1614, 1611, 1609, 1623, 1621, 1591, 1662, 1638, 1622, 1616, 1606, 1636, 1626, 1627, 1624, 1610, 1611, 1628, 1641],
      "WindowCenter": [375.0, 375.0, 374.0, 374.0, 373.0, 373.0, 372.0, 372.0, 373.0, 374.0, 374.0, 374.0, 374.0, 373.0, 374.0, 374.0, 374.0, 375.0, 376.0, 376.0, 375.0, 375.0, 374.0, 373.0, 372.0, 372.0, 373.0, 372.0, 372.0, 374.0, 373.0, 374.0, 375.0, 375.0, 374.0, 375.0, 374.0, 374.0, 374.0, 373.0, 373.0, 374.0, 374.0, 374.0, 377.0, 378.0, 378.0, 376.0, 374.0, 373.0, 373.0, 373.0, 372.0, 373.0, 372.0, 373.0, 375.0, 376.0, 375.0, 375.0, 375.0, 374.0, 372.0, 371.0, 372.0, 372.0, 372.0, 372.0, 373.0, 373.0, 373.0, 373.0, 372.0, 373.0, 373.0, 374.0, 374.0, 374.0, 374.0, 373.0, 373.0, 373.0, 374.0, 376.0, 376.0, 376.0, 375.0, 374.0, 374.0, 373.0, 373.0, 374.0, 373.0, 372.0, 373.0, 373.0, 373.0, 374.0, 372.0, 373.0, 372.0, 371.0, 371.0, 371.0, 371.0, 371.0, 371.0, 372.0, 373.0, 374.0, 374.0, 374.0, 373.0, 374.0, 374.0, 374.0, 374.0, 373.0, 374.0, 374.0, 373.0, 373.0, 373.0, 373.0, 372.0, 373.0, 375.0, 374.0, 375.0, 375.0, 375.0, 372.0, 371.0, 371.0, 371.0, 371.0, 371.0, 372.0, 372.0, 372.0, 373.0, 371.0, 371.0, 371.0, 371.0, 372.0, 372.0, 374.0, 374.0, 374.0, 375.0, 376.0, 375.0, 374.0, 374.0, 373.0, 373.0, 374.0, 375.0, 374.0, 374.0, 374.0, 374.0, 375.0, 373.0, 373.0, 373.0, 374.0, 374.0, 374.0, 372.0, 371.0, 371.0, 370.0, 370.0, 372.0, 372.0, 374.0, 374.0, 373.0, 374.0, 374.0, 374.0, 374.0, 374.0, 374.0, 374.0, 374.0, 374.0, 374.0, 374.0, 373.0, 372.0, 373.0, 373.0, 374.0, 375.0, 375.0, 374.0, 374.0, 374.0, 372.0, 373.0, 373.0, 374.0, 374.0, 374.0, 374.0, 373.0, 373.0, 372.0, 373.0, 374.0, 375.0, 374.0, 373.0, 373.0, 372.0, 371.0, 373.0, 373.0, 373.0, 373.0, 372.0, 372.0, 371.0, 372.0, 373.0, 373.0, 373.0, 373.0, 372.0, 372.0, 373.0, 373.0, 373.0, 375.0, 375.0, 375.0, 373.0, 373.0, 372.0, 371.0, 371.0, 372.0, 373.0, 373.0, 375.0, 375.0, 375.0, 375.0, 374.0, 374.0, 373.0, 372.0, 372.0, 373.0, 372.0, 373.0, 374.0, 372.0, 371.0, 372.0, 372.0, 371.0, 372.0, 373.0, 373.0, 373.0, 373.0, 374.0, 373.0, 371.0, 371.0, 370.0, 370.0, 370.0, 371.0, 372.0, 371.0, 372.0, 372.0, 371.0, 371.0, 371.0, 371.0, 371.0, 372.0, 371.0, 371.0, 372.0, 371.0, 371.0, 371.0, 371.0, 371.0, 371.0, 372.0, 372.0, 372.0, 372.0, 372.0, 373.0, 374.0, 373.0, 373.0, 372.0, 371.0, 370.0, 371.0, 371.0, 371.0, 371.0, 371.0, 370.0, 370.0, 371.0, 372.0, 372.0, 371.0, 371.0, 371.0, 371.0, 371.0, 372.0, 372.0, 372.0, 371.0, 372.0, 372.0],
