{
  "AcquisitionMatrixPE": 104,
  "AcquisitionNumber": 1,
  "AcquisitionTime": "11:00:41.537500",
  "BandwidthPerPixelPhaseEncode": 43.054,
  "BaseResolution": 104,
  "CoilString": "C:E1_2",
  "ConversionSoftware": "dcm2niix",
  "ConversionSoftwareVersion": "v1.0.20191031",
  "DerivedVendorReportedEchoSpacing": 0.000669999,
  "DeviceSerialNumber": "18932",
  "DwellTime": 2.8e-06,
  "EchoTime": 0.02,
  "EffectiveEchoSpacing": 0.000223333,
  "FlipAngle": 30,
  "ImageComments": "Unaliased_MB2_PE2",
  "ImageOrientationPatientDICOM": [1, 0, 0, 0, 0.972776, -0.231748],
  "ImageType": [
    "ORIGINAL",
    "PRIMARY",
    "M",
    "MB",
    "ND",
    "MOSAIC"
],
  "ImagingFrequency": 297.229,
  "InPlanePhaseEncodingDirectionDICOM": "COL",
  "InstitutionAddress": "Richmond_Street_North_1151_London_409EF2_Ontario_CA_N6A_5B7",
  "InstitutionName": "Robarts_Reserch_Institute",
  "InstitutionalDepartmentName": "Department",
  "MRAcquisitionType": "2D",
  "MagneticFieldStrength": 6.98,
  "Manufacturer": "Siemens",
  "ManufacturersModelName": "Investigational_Device_7T",
  "Modality": "MR",
  "MultibandAccelerationFactor": 2,
  "ParallelReductionFactorInPlane": 3,
  "PartialFourier": 0.875,
  "PatientPosition": "HFS",
  "PercentPhaseFOV": 100,
  "PhaseEncodingDirection": "j-",
  "PhaseEncodingSteps": 91,
  "PhaseResolution": 1,
  "PixelBandwidth": 1717,
  "ProcedureStepDescription": "Diedrichsen_SeqRep4",
  "ProtocolName": "mbep2d_bold_mb2_p3_AP_2iso",
  "PulseSequenceDetails": "%CustomerSeq%_cmrr_mbep2d_bold",
  "ReceiveCoilName": "CFMM_8Tx32Rx",
  "ReconMatrixPE": 104,
  "RefLinesPE": 36,
  "RepetitionTime": 1,
  "ScanOptions": "PFP_FS",
  "ScanningSequence": "EP",
  "SequenceName": "epfid2d1_104",
  "SequenceVariant": "SK_SS",
  "SeriesDescription": "mbep2d_bold_mb2_p3_AP_2iso",
  "SeriesNumber": 13,
  "ShimSetting": [-42, 2071, 3, 1492, 24, 2, 67, -200],
  "SliceThickness": 2,
  "SliceTiming": [0, 0.2275, 0.455, 0.685, 0.9125, 0.1375, 0.365, 0.5925, 0.82, 0.045, 0.2725, 0.5025, 0.73, 0.9575, 0.1825, 0.41, 0.6375, 0.8675, 0.09, 0.32, 0.5475, 0.775, 0, 0.2275, 0.455, 0.685, 0.9125, 0.1375, 0.365, 0.5925, 0.82, 0.045, 0.2725, 0.5025, 0.73, 0.9575, 0.1825, 0.41, 0.6375, 0.8675, 0.09, 0.32, 0.5475, 0.775],
  "SoftwareVersions": "syngo_MR_B17",
  "SpacingBetweenSlices": 2,
  "StationName": "MASTER",
  "TaskName": "dsp",
  "TotalReadoutTime": 0.0230033,
  "TxRefAmp": 120,
  "dcmmeta_affine": [
    [-2.0, 0.0, 0.0, 105.4527816772461],
    [0.0, 1.9455517530441284, -0.46349579095840454, -109.59912872314453],
    [0.0, 0.46349579095840454, 1.9455517530441284, -53.16842269897461],
    [0.0, 0.0, 0.0, 1.0]
],
  "dcmmeta_reorient_transform": [
    [0.0, -1.0, 0.0, 103.0],
    [1.0, 0.0, 0.0, 0.0],
    [0.0, 0.0, 1.0, 0.0],
    [0.0, 0.0, 0.0, 1.0]
],
  "dcmmeta_shape": [104, 104, 44, 330],
  "dcmmeta_slice_dim": 2,
  "dcmmeta_version": 0.6,
  "global": {
    "const": {
      "AcquisitionMatrix": [104, 0, 0, 104],
      "AngioFlag": "N",
      "BitsAllocated": 16,
      "BitsStored": 12,
      "Columns": 728,
      "EchoNumbers": 1,
      "EchoTime": 20.0,
      "EchoTrainLength": 1,
      "FlipAngle": 30.0,
      "HighBit": 11,
      "ImageOrientationPatient": [1.0, 0.0, 0.0, 0.0, 0.97277587948169, -0.2317478981536],
      "ImagePositionPatient": [-729.45278453827, -697.80484939506, 139.18233184008],
      "ImageType": [
        "ORIGINAL",
        "PRIMARY",
        "M",
        "MB",
        "ND",
        "MOSAIC"
],
      "ImagedNucleus": "1H",
      "ImagingFrequency": 297.228932,
      "InPlanePhaseEncodingDirection": "COL",
      "MRAcquisitionType": "2D",
      "MagneticFieldStrength": 6.98,
      "Manufacturer": "SIEMENS",
      "ManufacturerModelName": "Investigational_Device_7T",
      "Modality": "MR",
      "NumberOfAverages": 1.0,
      "NumberOfPhaseEncodingSteps": 91,
      "PercentPhaseFieldOfView": 100.0,
      "PercentSampling": 100.0,
      "PerformedProcedureStepStartTime": "103843.453000",
      "PhotometricInterpretation": "MONOCHROME2",
      "PixelBandwidth": 1717.0,
      "PixelRepresentation": 0,
      "PixelSpacing": [2.0, 2.0],
      "ProtocolName": "mbep2d_bold_mb2_p3_AP 2iso",
      "RepetitionTime": 1000.0,
      "Rows": 728,
      "SAR": 0.0,
      "SamplesPerPixel": 1,
      "ScanOptions": [
        "PFP",
        "FS"
],
      "ScanningSequence": "EP",
      "SequenceName": "epfid2d1_104",
      "SequenceVariant": [
        "SK",
        "SS"
],
      "SeriesDescription": "mbep2d_bold_mb2_p3_AP 2iso",
      "SeriesNumber": 13,
      "SeriesTime": "110103.687000",
      "SliceLocation": -26.321591904653,
      "SliceThickness": 2.0,
      "SmallestImagePixelValue": 0,
      "SoftwareVersions": "syngo MR B17",
      "SpacingBetweenSlices": 1.9999999621195,
      "SpecificCharacterSet": "ISO_IR 100",
      "StudyID": "1",
      "StudyTime": "103843.390000",
      "TransmitCoilName": "CFMM_8Tx32Rx",
      "VariableFlipAngleFlag": "N",
      "WindowCenterWidthExplanation": "Algo1",
      "dBdt": 0.0},
    "slices": {}
  },
  "time": {
    "samples": {
      "AcquisitionNumber": [1, 2, 3, 4, 5, 6, 7, 8, 9, 10, 11, 12, 13, 14, 15, 16, 17, 18, 19, 20, 21, 22, 23, 24, 25, 26, 27, 28, 29, 30, 31, 32, 33, 34, 35, 36, 37, 38, 39, 40, 41, 42, 43, 44, 45, 46, 47, 48, 49, 50, 51, 52, 53, 54, 55, 56, 57, 58, 59, 60, 61, 62, 63, 64, 65, 66, 67, 68, 69, 70, 71, 72, 73, 74, 75, 76, 77, 78, 79, 80, 81, 82, 83, 84, 85, 86, 87, 88, 89, 90, 91, 92, 93, 94, 95, 96, 97, 98, 99, 100, 101, 102, 103, 104, 105, 106, 107, 108, 109, 110, 111, 112, 113, 114, 115, 116, 117, 118, 119, 120, 121, 122, 123, 124, 125, 126, 127, 128, 129, 130, 131, 132, 133, 134, 135, 136, 137, 138, 139, 140, 141, 142, 143, 144, 145, 146, 147, 148, 149, 150, 151, 152, 153, 154, 155, 156, 157, 158, 159, 160, 161, 162, 163, 164, 165, 166, 167, 168, 169, 170, 171, 172, 173, 174, 175, 176, 177, 178, 179, 180, 181, 182, 183, 184, 185, 186, 187, 188, 189, 190, 191, 192, 193, 194, 195, 196, 197, 198, 199, 200, 201, 202, 203, 204, 205, 206, 207, 208, 209, 210, 211, 212, 213, 214, 215, 216, 217, 218, 219, 220, 221, 222, 223, 224, 225, 226, 227, 228, 229, 230, 231, 232, 233, 234, 235, 236, 237, 238, 239, 240, 241, 242, 243, 244, 245, 246, 247, 248, 249, 250, 251, 252, 253, 254, 255, 256, 257, 258, 259, 260, 261, 262, 263, 264, 265, 266, 267, 268, 269, 270, 271, 272, 273, 274, 275, 276, 277, 278, 279, 280, 281, 282, 283, 284, 285, 286, 287, 288, 289, 290, 291, 292, 293, 294, 295, 296, 297, 298, 299, 300, 301, 302, 303, 304, 305, 306, 307, 308, 309, 310, 311, 312, 313, 314, 315, 316, 317, 318, 319, 320, 321, 322, 323, 324, 325, 326, 327, 328, 329, 330],
      "AcquisitionTime": ["110041.537500", "110042.540000", "110043.545000", "110044.550000", "110045.552500", "110046.557500", "110047.562500", "110048.565000", "110049.570000", "110050.572500", "110051.577500", "110052.582500", "110053.585000", "110054.590000", "110055.592500", "110056.597500", "110057.602500", "110058.605000", "110059.610000", "110100.612500", "110101.617500", "110102.622500", "110103.625000", "110104.630000", "110105.632500", "110106.637500", "110107.642500", "110108.645000", "110109.650000", "110110.652500", "110111.657500", "110112.662500", "110113.665000", "110114.670000", "110115.672500", "110116.677500", "110117.682500", "110118.685000", "110119.690000", "110120.695000", "110121.697500", "110122.702500", "110123.705000", "110124.710000", "110125.715000", "110126.717500", "110127.722500", "110128.725000", "110129.730000", "110130.735000", "110131.737500", "110132.742500", "110133.745000", "110134.750000", "110135.755000", "110136.757500", "110137.762500", "110138.765000", "110139.770000", "110140.775000", "110141.777500", "110142.782500", "110143.785000", "110144.790000", "110145.795000", "110146.797500", "110147.802500", "110148.807500", "110149.810000", "110150.815000", "110151.817500", "110152.822500", "110153.827500", "110154.830000", "110155.835000", "110156.837500", "110157.842500", "110158.847500", "110159.850000", "110200.855000", "110201.857500", "110202.862500", "110203.867500", "110204.870000", "110205.875000", "110206.877500", "110207.882500", "110208.887500", "110209.890000", "110210.895000", "110211.897500", "110212.902500", "110213.907500", "110214.910000", "110215.915000", "110216.917500", "110217.922500", "110218.927500", "110219.930000", "110220.935000", "110221.940000", "110222.942500", "110223.947500", "110224.950000", "110225.955000", "110226.960000", "110227.962500", "110228.967500", "110229.970000", "110230.975000", "110231.980000", "110232.982500", "110233.987500", "110234.990000", "110235.995000", "110237.000000", "110238.002500", "110239.007500", "110240.010000", "110241.015000", "110242.020000", "110243.022500", "110244.027500", "110245.030000", "110246.035000", "110247.040000", "110248.042500", "110249.047500", "110250.050000", "110251.055000", "110252.060000", "110253.062500", "110254.067500", "110255.072500", "110256.075000", "110257.080000", "110258.082500", "110259.087500", "110300.092500", "110301.095000", "110302.100000", "110303.102500", "110304.107500", "110305.112500", "110306.115000", "110307.120000", "110308.122500", "110309.127500", "110310.132500", "110311.135000", "110312.140000", "110313.142500", "110314.147500", "110315.152500", "110316.155000", "110317.160000", "110318.162500", "110319.167500", "110320.172500", "110321.175000", "110322.180000", "110323.185000", "110324.187500", "110325.192500", "110326.195000", "110327.200000", "110328.205000", "110329.207500", "110330.212500", "110331.215000", "110332.220000", "110333.225000", "110334.227500", "110335.232500", "110336.235000", "110337.240000", "110338.245000", "110339.247500", "110340.252500", "110341.255000", "110342.260000", "110343.265000", "110344.267500", "110345.272500", "110346.275000", "110347.280000", "110348.285000", "110349.287500", "110350.292500", "110351.295000", "110352.300000", "110353.305000", "110354.307500", "110355.312500", "110356.317500", "110357.320000", "110358.325000", "110359.327500", "110400.332500", "110401.337500", "110402.340000", "110403.345000", "110404.347500", "110405.352500", "110406.357500", "110407.360000", "110408.365000", "110409.367500", "110410.372500", "110411.377500", "110412.380000", "110413.385000", "110414.387500", "110415.392500", "110416.397500", "110417.400000", "110418.405000", "110419.407500", "110420.412500", "110421.417500", "110422.420000", "110423.425000", "110424.430000", "110425.432500", "110426.437500", "110427.440000", "110428.445000", "110429.450000", "110430.452500", "110431.457500", "110432.460000", "110433.465000", "110434.470000", "110435.472500", "110436.477500", "110437.480000", "110438.485000", "110439.490000", "110440.492500", "110441.497500", "110442.500000", "110443.505000", "110444.510000", "110445.512500", "110446.517500", "110447.520000", "110448.525000", "110449.530000", "110450.532500", "110451.537500", "110452.540000", "110453.545000", "110454.550000", "110455.552500", "110456.557500", "110457.562500", "110458.565000", "110459.570000", "110500.572500", "110501.577500", "110502.582500", "110503.585000", "110504.590000", "110505.592500", "110506.597500", "110507.602500", "110508.605000", "110509.610000", "110510.612500", "110511.617500", "110512.622500", "110513.625000", "110514.630000", "110515.632500", "110516.637500", "110517.642500", "110518.645000", "110519.650000", "110520.652500", "110521.657500", "110522.662500", "110523.665000", "110524.670000", "110525.672500", "110526.677500", "110527.682500", "110528.685000", "110529.690000", "110530.695000", "110531.697500", "110532.702500", "110533.705000", "110534.710000", "110535.715000", "110536.717500", "110537.722500", "110538.725000", "110539.730000", "110540.735000", "110541.737500", "110542.742500", "110543.745000", "110544.750000", "110545.755000", "110546.757500", "110547.762500", "110548.765000", "110549.770000", "110550.775000", "110551.777500", "110552.782500", "110553.785000", "110554.790000", "110555.795000", "110556.797500", "110557.802500", "110558.807500", "110559.810000", "110600.815000", "110601.817500", "110602.822500", "110603.827500", "110604.830000", "110605.835000", "110606.837500", "110607.842500", "110608.847500", "110609.850000", "110610.855000", "110611.857500"],
      "ContentTime": ["110103.687000", "110103.687000", "110103.687000", "110103.703000", "110103.703000", "110103.703000", "110103.703000", "110103.718000", "110103.718000", "110103.718000", "110103.718000", "110103.718000", "110103.718000", "110103.718000", "110103.734000", "110103.734000", "110103.734000", "110103.734000", "110103.734000", "110103.734000", "110103.734000", "110123.640000", "110123.656000", "110123.656000", "110123.656000", "110123.656000", "110123.656000", "110123.671000", "110123.671000", "110123.671000", "110123.671000", "110123.671000", "110123.671000", "110123.671000", "110123.671000", "110123.687000", "110123.687000", "110123.687000", "110123.687000", "110123.687000", "110123.687000", "110143.640000", "110143.656000", "110143.656000", "110143.656000", "110143.656000", "110143.656000", "110143.656000", "110143.656000", "110143.671000", "110143.671000", "110143.687000", "110143.687000", "110143.687000", "110143.687000", "110143.687000", "110143.687000", "110143.687000", "110143.703000", "110143.703000", "110143.703000", "110203.640000", "110203.656000", "110203.656000", "110203.656000", "110203.656000", "110203.656000", "110203.656000", "110203.656000", "110203.671000", "110203.671000", "110203.671000", "110203.671000", "110203.671000", "110203.671000", "110203.671000", "110203.687000", "110203.687000", "110203.687000", "110203.687000", "110203.687000", "110223.640000", "110223.656000", "110223.656000", "110223.656000", "110223.656000", "110223.656000", "110223.656000", "110223.656000", "110223.671000", "110223.671000", "110223.671000", "110223.671000", "110223.671000", "110223.671000", "110223.671000", "110223.671000", "110223.687000", "110223.687000", "110223.687000", "110223.687000", "110243.640000", "110243.656000", "110243.656000", "110243.656000", "110243.656000", "110243.656000", "110243.656000", "110243.656000", "110243.671000", "110243.671000", "110243.671000", "110243.671000", "110243.671000", "110243.671000", "110243.671000", "110243.671000", "110243.687000", "110243.687000", "110243.687000", "110243.687000", "110303.640000", "110303.656000", "110303.656000", "110303.656000", "110303.656000", "110303.656000", "110303.656000", "110303.656000", "110303.671000", "110303.671000", "110303.671000", "110303.671000", "110303.671000", "110303.671000", "110303.671000", "110303.671000", "110303.687000", "110303.687000", "110303.687000", "110303.687000", "110323.640000", "110323.656000", "110323.656000", "110323.656000", "110323.656000", "110323.671000", "110323.671000", "110323.671000", "110323.671000", "110323.671000", "110323.671000", "110323.671000", "110323.687000", "110323.687000", "110323.687000", "110323.687000", "110323.687000", "110323.687000", "110323.703000", "110323.703000", "110343.640000", "110343.656000", "110343.656000", "110343.656000", "110343.656000", "110343.656000", "110343.671000", "110343.671000", "110343.671000", "110343.671000", "110343.671000", "110343.671000", "110343.671000", "110343.687000", "110343.687000", "110343.687000", "110343.687000", "110343.687000", "110343.687000", "110343.687000", "110403.640000", "110403.656000", "110403.656000", "110403.656000", "110403.656000", "110403.656000", "110403.656000", "110403.671000", "110403.671000", "110403.671000", "110403.671000", "110403.671000", "110403.671000", "110403.687000", "110403.687000", "110403.687000", "110403.687000", "110403.687000", "110403.687000", "110403.687000", "110423.640000", "110423.656000", "110423.656000", "110423.656000", "110423.656000", "110423.656000", "110423.671000", "110423.671000", "110423.671000", "110423.671000", "110423.671000", "110423.671000", "110423.671000", "110423.671000", "110423.687000", "110423.687000", "110423.687000", "110423.687000", "110423.687000", "110423.687000", "110443.640000", "110443.656000", "110443.656000", "110443.656000", "110443.656000", "110443.656000", "110443.656000", "110443.671000", "110443.671000", "110443.671000", "110443.671000", "110443.671000", "110443.671000", "110443.671000", "110443.687000", "110443.687000", "110443.687000", "110443.687000", "110443.687000", "110443.687000", "110503.640000", "110503.656000", "110503.656000", "110503.656000", "110503.656000", "110503.671000", "110503.671000", "110503.671000", "110503.671000", "110503.671000", "110503.671000", "110503.671000", "110503.687000", "110503.687000", "110503.687000", "110503.687000", "110503.687000", "110503.687000", "110503.687000", "110503.687000", "110523.640000", "110523.656000", "110523.656000", "110523.656000", "110523.656000", "110523.656000", "110523.656000", "110523.656000", "110523.671000", "110523.671000", "110523.671000", "110523.671000", "110523.671000", "110523.687000", "110523.687000", "110523.687000", "110523.687000", "110523.687000", "110523.687000", "110523.687000", "110543.640000", "110543.656000", "110543.656000", "110543.656000", "110543.656000", "110543.656000", "110543.656000", "110543.656000", "110543.671000", "110543.671000", "110543.671000", "110543.671000", "110543.671000", "110543.671000", "110543.671000", "110543.671000", "110543.687000", "110543.687000", "110543.687000", "110543.703000", "110603.656000", "110603.656000", "110603.656000", "110603.656000", "110603.656000", "110603.671000", "110603.671000", "110603.671000", "110603.671000", "110603.671000", "110603.671000", "110603.671000", "110603.687000", "110603.687000", "110603.687000", "110603.687000", "110603.687000", "110603.687000", "110603.687000", "110603.687000", "110617.578000", "110617.578000", "110617.578000", "110617.578000", "110617.578000", "110617.578000", "110617.578000", "110617.593000", "110617.593000"],
      "InstanceCreationTime": ["110103.687000", "110103.687000", "110103.687000", "110103.703000", "110103.703000", "110103.703000", "110103.703000", "110103.718000", "110103.718000", "110103.718000", "110103.718000", "110103.718000", "110103.718000", "110103.718000", "110103.734000", "110103.734000", "110103.734000", "110103.734000", "110103.734000", "110103.734000", "110103.734000", "110123.640000", "110123.656000", "110123.656000", "110123.656000", "110123.656000", "110123.656000", "110123.671000", "110123.671000", "110123.671000", "110123.671000", "110123.671000", "110123.671000", "110123.671000", "110123.671000", "110123.687000", "110123.687000", "110123.687000", "110123.687000", "110123.687000", "110123.687000", "110143.640000", "110143.656000", "110143.656000", "110143.656000", "110143.656000", "110143.656000", "110143.656000", "110143.656000", "110143.671000", "110143.671000", "110143.687000", "110143.687000", "110143.687000", "110143.687000", "110143.687000", "110143.687000", "110143.687000", "110143.703000", "110143.703000", "110143.703000", "110203.640000", "110203.656000", "110203.656000", "110203.656000", "110203.656000", "110203.656000", "110203.656000", "110203.656000", "110203.671000", "110203.671000", "110203.671000", "110203.671000", "110203.671000", "110203.671000", "110203.671000", "110203.687000", "110203.687000", "110203.687000", "110203.687000", "110203.687000", "110223.640000", "110223.656000", "110223.656000", "110223.656000", "110223.656000", "110223.656000", "110223.656000", "110223.656000", "110223.671000", "110223.671000", "110223.671000", "110223.671000", "110223.671000", "110223.671000", "110223.671000", "110223.671000", "110223.687000", "110223.687000", "110223.687000", "110223.687000", "110243.640000", "110243.656000", "110243.656000", "110243.656000", "110243.656000", "110243.656000", "110243.656000", "110243.656000", "110243.671000", "110243.671000", "110243.671000", "110243.671000", "110243.671000", "110243.671000", "110243.671000", "110243.671000", "110243.687000", "110243.687000", "110243.687000", "110243.687000", "110303.640000", "110303.656000", "110303.656000", "110303.656000", "110303.656000", "110303.656000", "110303.656000", "110303.656000", "110303.671000", "110303.671000", "110303.671000", "110303.671000", "110303.671000", "110303.671000", "110303.671000", "110303.671000", "110303.687000", "110303.687000", "110303.687000", "110303.687000", "110323.640000", "110323.656000", "110323.656000", "110323.656000", "110323.656000", "110323.671000", "110323.671000", "110323.671000", "110323.671000", "110323.671000", "110323.671000", "110323.671000", "110323.687000", "110323.687000", "110323.687000", "110323.687000", "110323.687000", "110323.687000", "110323.703000", "110323.703000", "110343.640000", "110343.656000", "110343.656000", "110343.656000", "110343.656000", "110343.656000", "110343.671000", "110343.671000", "110343.671000", "110343.671000", "110343.671000", "110343.671000", "110343.671000", "110343.687000", "110343.687000", "110343.687000", "110343.687000", "110343.687000", "110343.687000", "110343.687000", "110403.640000", "110403.656000", "110403.656000", "110403.656000", "110403.656000", "110403.656000", "110403.656000", "110403.671000", "110403.671000", "110403.671000", "110403.671000", "110403.671000", "110403.671000", "110403.687000", "110403.687000", "110403.687000", "110403.687000", "110403.687000", "110403.687000", "110403.687000", "110423.640000", "110423.656000", "110423.656000", "110423.656000", "110423.656000", "110423.656000", "110423.671000", "110423.671000", "110423.671000", "110423.671000", "110423.671000", "110423.671000", "110423.671000", "110423.671000", "110423.687000", "110423.687000", "110423.687000", "110423.687000", "110423.687000", "110423.687000", "110443.640000", "110443.656000", "110443.656000", "110443.656000", "110443.656000", "110443.656000", "110443.656000", "110443.671000", "110443.671000", "110443.671000", "110443.671000", "110443.671000", "110443.671000", "110443.671000", "110443.687000", "110443.687000", "110443.687000", "110443.687000", "110443.687000", "110443.687000", "110503.640000", "110503.656000", "110503.656000", "110503.656000", "110503.656000", "110503.671000", "110503.671000", "110503.671000", "110503.671000", "110503.671000", "110503.671000", "110503.671000", "110503.687000", "110503.687000", "110503.687000", "110503.687000", "110503.687000", "110503.687000", "110503.687000", "110503.687000", "110523.640000", "110523.656000", "110523.656000", "110523.656000", "110523.656000", "110523.656000", "110523.656000", "110523.656000", "110523.671000", "110523.671000", "110523.671000", "110523.671000", "110523.671000", "110523.687000", "110523.687000", "110523.687000", "110523.687000", "110523.687000", "110523.687000", "110523.687000", "110543.640000", "110543.656000", "110543.656000", "110543.656000", "110543.656000", "110543.656000", "110543.656000", "110543.656000", "110543.671000", "110543.671000", "110543.671000", "110543.671000", "110543.671000", "110543.671000", "110543.671000", "110543.671000", "110543.687000", "110543.687000", "110543.687000", "110543.703000", "110603.656000", "110603.656000", "110603.656000", "110603.656000", "110603.656000", "110603.671000", "110603.671000", "110603.671000", "110603.671000", "110603.671000", "110603.671000", "110603.671000", "110603.687000", "110603.687000", "110603.687000", "110603.687000", "110603.687000", "110603.687000", "110603.687000", "110603.687000", "110617.578000", "110617.578000", "110617.578000", "110617.578000", "110617.578000", "110617.578000", "110617.578000", "110617.593000", "110617.593000"],
      "InstanceNumber": [1, 2, 3, 4, 5, 6, 7, 8, 9, 10, 11, 12, 13, 14, 15, 16, 17, 18, 19, 20, 21, 22, 23, 24, 25, 26, 27, 28, 29, 30, 31, 32, 33, 34, 35, 36, 37, 38, 39, 40, 41, 42, 43, 44, 45, 46, 47, 48, 49, 50, 51, 52, 53, 54, 55, 56, 57, 58, 59, 60, 61, 62, 63, 64, 65, 66, 67, 68, 69, 70, 71, 72, 73, 74, 75, 76, 77, 78, 79, 80, 81, 82, 83, 84, 85, 86, 87, 88, 89, 90, 91, 92, 93, 94, 95, 96, 97, 98, 99, 100, 101, 102, 103, 104, 105, 106, 107, 108, 109, 110, 111, 112, 113, 114, 115, 116, 117, 118, 119, 120, 121, 122, 123, 124, 125, 126, 127, 128, 129, 130, 131, 132, 133, 134, 135, 136, 137, 138, 139, 140, 141, 142, 143, 144, 145, 146, 147, 148, 149, 150, 151, 152, 153, 154, 155, 156, 157, 158, 159, 160, 161, 162, 163, 164, 165, 166, 167, 168, 169, 170, 171, 172, 173, 174, 175, 176, 177, 178, 179, 180, 181, 182, 183, 184, 185, 186, 187, 188, 189, 190, 191, 192, 193, 194, 195, 196, 197, 198, 199, 200, 201, 202, 203, 204, 205, 206, 207, 208, 209, 210, 211, 212, 213, 214, 215, 216, 217, 218, 219, 220, 221, 222, 223, 224, 225, 226, 227, 228, 229, 230, 231, 232, 233, 234, 235, 236, 237, 238, 239, 240, 241, 242, 243, 244, 245, 246, 247, 248, 249, 250, 251, 252, 253, 254, 255, 256, 257, 258, 259, 260, 261, 262, 263, 264, 265, 266, 267, 268, 269, 270, 271, 272, 273, 274, 275, 276, 277, 278, 279, 280, 281, 282, 283, 284, 285, 286, 287, 288, 289, 290, 291, 292, 293, 294, 295, 296, 297, 298, 299, 300, 301, 302, 303, 304, 305, 306, 307, 308, 309, 310, 311, 312, 313, 314, 315, 316, 317, 318, 319, 320, 321, 322, 323, 324, 325, 326, 327, 328, 329, 330],
      "LargestImagePixelValue": [2547, 2543, 2507, 2515, 2545, 2522, 2530, 2548, 2516, 2544, 2528, 2464, 2480, 2487, 2530, 2464, 2469, 2455, 2476, 2517, 2505, 2495, 2522, 2499, 2504, 2492, 2495, 2482, 2513, 2545, 2476, 2497, 2469, 2487, 2556, 2466, 2465, 2488, 2502, 2517, 2560, 2511, 2499, 2527, 2488, 2480, 2519, 2555, 2530, 2560, 2521, 2527, 2596, 2566, 2581, 2587, 2588, 2524, 2522, 2543, 2542, 2528, 2541, 2553, 2559, 2523, 2526, 2540, 2517, 2548, 2561, 2524, 2567, 2617, 2597, 2554, 2528, 2540, 2602, 2586, 2538, 2522, 2502, 2534, 2549, 2575, 2532, 2547, 2534, 2542, 2600, 2477, 2530, 2596, 2560, 2518, 2522, 2573, 2526, 2576, 2557, 2561, 2575, 2514, 2570, 2538, 2441, 2578, 2540, 2492, 2557, 2538, 2470, 2526, 2505, 2489, 2527, 2558, 2522, 2590, 2552, 2546, 2559, 2543, 2515, 2604, 2582, 2545, 2565, 2567, 2563, 2538, 2571, 2681, 2634, 2560, 2549, 2557, 2602, 2571, 2578, 2513, 2558, 2618, 2592, 2581, 2534, 2587, 2555, 2599, 2564, 2563, 2568, 2620, 2580, 2582, 2570, 2596, 2567, 2567, 2570, 2595, 2581, 2578, 2582, 2622, 2600, 2646, 2644, 2593, 2600, 2552, 2595, 2625, 2611, 2617, 2541, 2568, 2606, 2618, 2610, 2578, 2545, 2601, 2583, 2582, 2605, 2594, 2590, 2568, 2555, 2563, 2566, 2612, 2585, 2593, 2566, 2537, 2617, 2610, 2628, 2558, 2609, 2611, 2685, 2607, 2525, 2557, 2531, 2585, 2579, 2542, 2574, 2670, 2581, 2618, 2619, 2598, 2586, 2606, 2589, 2584, 2588, 2590, 2621, 2643, 2631, 2649, 2645, 2632, 2673, 2633, 2587, 2670, 2658, 2651, 2586, 2610, 2623, 2605, 2615, 2631, 2619, 2600, 2629, 2618, 2607, 2603, 2625, 2604, 2597, 2602, 2591, 2599, 2602, 2575, 2552, 2566, 2552, 2564, 2569, 2533, 2570, 2536, 2559, 2583, 2572, 2526, 2575, 2637, 2615, 2609, 2598, 2604, 2611, 2606, 2545, 2600, 2619, 2612, 2581, 2599, 2591, 2574, 2636, 2611, 2640, 2618, 2624, 2579, 2593, 2611, 2619, 2630, 2616, 2483, 2346, 2365, 2369, 2512, 2446, 2530, 2515, 2503, 2527, 2536, 2506, 2528, 2519, 2535, 2482, 2515, 2601, 2594, 2550, 2595, 2559, 2590, 2529, 2491, 2554, 2536, 2567, 2555, 2572, 2543, 2558, 2533, 2548, 2540],
      "WindowCenter": [420.0, 420.0, 419.0, 419.0, 419.0, 419.0, 419.0, 419.0, 420.0, 420.0, 419.0, 419.0, 419.0, 419.0, 419.0, 419.0, 417.0, 418.0, 418.0, 418.0, 418.0, 419.0, 420.0, 420.0, 420.0, 419.0, 418.0, 418.0, 418.0, 418.0, 419.0, 419.0, 419.0, 419.0, 419.0, 419.0, 419.0, 419.0, 418.0, 417.0, 418.0, 418.0, 417.0, 418.0, 418.0, 417.0, 418.0, 418.0, 418.0, 419.0, 419.0, 419.0, 420.0, 420.0, 420.0, 420.0, 420.0, 420.0, 420.0, 420.0, 419.0, 419.0, 420.0, 420.0, 420.0, 419.0, 420.0, 420.0, 419.0, 419.0, 419.0, 418.0, 419.0, 420.0, 420.0, 419.0, 420.0, 420.0, 420.0, 420.0, 419.0, 418.0, 418.0, 418.0, 418.0, 418.0, 418.0, 419.0, 419.0, 419.0, 419.0, 418.0, 419.0, 419.0, 419.0, 419.0, 418.0, 419.0, 420.0, 421.0, 421.0, 422.0, 423.0, 421.0, 422.0, 421.0, 420.0, 421.0, 421.0, 421.0, 421.0, 422.0, 421.0, 420.0, 420.0, 419.0, 420.0, 421.0, 421.0, 422.0, 421.0, 421.0, 419.0, 420.0, 418.0, 418.0, 418.0, 418.0, 418.0, 418.0, 417.0, 417.0, 417.0, 418.0, 418.0, 418.0, 418.0, 419.0, 419.0, 418.0, 419.0, 418.0, 418.0, 420.0, 420.0, 420.0, 420.0, 420.0, 420.0, 420.0, 420.0, 420.0, 420.0, 420.0, 419.0, 420.0, 419.0, 419.0, 419.0, 419.0, 420.0, 420.0, 420.0, 420.0, 420.0, 420.0, 420.0, 420.0, 420.0, 420.0, 421.0, 421.0, 421.0, 421.0, 420.0, 420.0, 419.0, 419.0, 420.0, 420.0, 420.0, 420.0, 419.0, 420.0, 419.0, 419.0, 419.0, 419.0, 420.0, 420.0, 420.0, 420.0, 420.0, 420.0, 420.0, 420.0, 420.0, 420.0, 420.0, 420.0, 419.0, 418.0, 419.0, 419.0, 420.0, 421.0, 421.0, 422.0, 421.0, 421.0, 422.0, 421.0, 420.0, 420.0, 420.0, 420.0, 420.0, 420.0, 420.0, 420.0, 419.0, 418.0, 418.0, 419.0, 419.0, 420.0, 420.0, 421.0, 421.0, 421.0, 422.0, 422.0, 421.0, 422.0, 422.0, 421.0, 420.0, 421.0, 420.0, 420.0, 419.0, 418.0, 418.0, 417.0, 417.0, 417.0, 418.0, 419.0, 420.0, 420.0, 419.0, 420.0, 420.0, 420.0, 420.0, 421.0, 420.0, 420.0, 421.0, 420.0, 420.0, 421.0, 422.0, 421.0, 421.0, 422.0, 421.0, 420.0, 420.0, 421.0, 422.0, 423.0, 424.0, 425.0, 424.0, 422.0, 421.0, 420.0, 421.0, 421.0, 420.0, 422.0, 421.0, 420.0, 421.0, 420.0, 419.0, 419.0, 419.0, 419.0, 419.0, 419.0, 419.0, 420.0, 420.0, 420.0, 421.0, 421.0, 420.0, 421.0, 419.0, 419.0, 418.0, 418.0, 417.0, 418.0, 418.0, 418.0, 419.0, 420.0, 419.0, 420.0, 420.0, 420.0, 420.0, 419.0, 418.0, 419.0, 419.0, 419.0, 420.0, 420.0, 421.0, 421.0, 420.0, 419.0, 419.0, 418.0, 418.0, 418.0],
