{
  "AcquisitionMatrixPE": 104,
  "AcquisitionNumber": 1,
  "AcquisitionTime": "14:25:15.650000",
  "BandwidthPerPixelPhaseEncode": 43.054,
  "BaseResolution": 104,
  "CoilString": "C:E1_2",
  "ConversionSoftware": "dcm2niix",
  "ConversionSoftwareVersion": "v1.0.20191031",
  "DerivedVendorReportedEchoSpacing": 0.000669999,
  "DeviceSerialNumber": "18932",
  "DwellTime": 2.8e-06,
  "EchoTime": 0.02,
  "EffectiveEchoSpacing": 0.000223333,
  "FlipAngle": 30,
  "ImageComments": "Unaliased_MB2_PE2",
  "ImageOrientationPatientDICOM": [1, 0, 0, 0, 0.989272, -0.146083],
  "ImageType": [
    "ORIGINAL",
    "PRIMARY",
    "M",
    "MB",
    "ND",
    "MOSAIC"
],
  "ImagingFrequency": 297.229,
  "InPlanePhaseEncodingDirectionDICOM": "COL",
  "InstitutionAddress": "Richmond_Street_North_1151_London_409EF2_Ontario_CA_N6A_5B7",
  "InstitutionName": "Robarts_Reserch_Institute",
  "InstitutionalDepartmentName": "Department",
  "MRAcquisitionType": "2D",
  "MagneticFieldStrength": 6.98,
  "Manufacturer": "Siemens",
  "ManufacturersModelName": "Investigational_Device_7T",
  "Modality": "MR",
  "MultibandAccelerationFactor": 2,
  "ParallelReductionFactorInPlane": 3,
  "PartialFourier": 0.875,
  "PatientPosition": "HFS",
  "PercentPhaseFOV": 100,
  "PhaseEncodingDirection": "j-",
  "PhaseEncodingSteps": 91,
  "PhaseResolution": 1,
  "PixelBandwidth": 1717,
  "ProcedureStepDescription": "Diedrichsen_SeqRep4",
  "ProtocolName": "mbep2d_bold_mb2_p3_AP_2iso",
  "PulseSequenceDetails": "%CustomerSeq%_cmrr_mbep2d_bold",
  "ReceiveCoilName": "CFMM_8Tx32Rx",
  "ReconMatrixPE": 104,
  "RefLinesPE": 36,
  "RepetitionTime": 1,
  "ScanOptions": "PFP_FS",
  "ScanningSequence": "EP",
  "SequenceName": "epfid2d1_104",
  "SequenceVariant": "SK_SS",
  "SeriesDescription": "mbep2d_bold_mb2_p3_AP_2iso",
  "SeriesNumber": 13,
  "ShimSetting": [1, 2087, 40, 1507, 44, 88, 447, -102],
  "SliceThickness": 2,
  "SliceTiming": [0, 0.2275, 0.455, 0.685, 0.9125, 0.1375, 0.365, 0.5925, 0.82, 0.045, 0.2725, 0.5025, 0.73, 0.9575, 0.1825, 0.41, 0.6375, 0.8675, 0.09, 0.32, 0.5475, 0.775, 0, 0.2275, 0.455, 0.685, 0.9125, 0.1375, 0.365, 0.5925, 0.82, 0.045, 0.2725, 0.5025, 0.73, 0.9575, 0.1825, 0.41, 0.6375, 0.8675, 0.09, 0.32, 0.5475, 0.775],
  "SoftwareVersions": "syngo_MR_B17",
  "SpacingBetweenSlices": 2,
  "StationName": "MASTER",
  "TaskName": "dsp",
  "TotalReadoutTime": 0.0230033,
  "TxRefAmp": 120,
  "dcmmeta_affine": [
    [-2.0, 0.0, 0.0, 107.6319580078125],
    [0.0, 1.9785447120666504, -0.2921660542488098, -114.23896789550781],
    [0.0, 0.2921660542488098, 1.9785445928573608, -47.31913375854492],
    [0.0, 0.0, 0.0, 1.0]
],
  "dcmmeta_reorient_transform": [
    [0.0, -1.0, 0.0, 103.0],
    [1.0, 0.0, 0.0, 0.0],
    [0.0, 0.0, 1.0, 0.0],
    [0.0, 0.0, 0.0, 1.0]
],
  "dcmmeta_shape": [104, 104, 44, 330],
  "dcmmeta_slice_dim": 2,
  "dcmmeta_version": 0.6,
  "global": {
    "const": {
      "AcquisitionMatrix": [104, 0, 0, 104],
      "AngioFlag": "N",
      "BitsAllocated": 16,
      "BitsStored": 12,
      "Columns": 728,
      "EchoNumbers": 1,
      "EchoTime": 20.0,
      "EchoTrainLength": 1,
      "FlipAngle": 30.0,
      "HighBit": 11,
      "ImageOrientationPatient": [1.0, 0.0, 0.0, 0.0, 0.98927233216483, -0.1460830339675],
      "ImagePositionPatient": [-731.63196134567, -706.85706880538, 73.929785703438],
      "ImageType": [
        "ORIGINAL",
        "PRIMARY",
        "M",
        "MB",
        "ND",
        "MOSAIC"
],
      "ImagedNucleus": "1H",
      "ImagingFrequency": 297.228776,
      "InPlanePhaseEncodingDirection": "COL",
      "MRAcquisitionType": "2D",
      "MagneticFieldStrength": 6.98,
      "Manufacturer": "SIEMENS",
      "ManufacturerModelName": "Investigational_Device_7T",
      "Modality": "MR",
      "NumberOfAverages": 1.0,
      "NumberOfPhaseEncodingSteps": 91,
      "PercentPhaseFieldOfView": 100.0,
      "PercentSampling": 100.0,
      "PerformedProcedureStepStartTime": "140116.046000",
      "PhotometricInterpretation": "MONOCHROME2",
      "PixelBandwidth": 1717.0,
      "PixelRepresentation": 0,
      "PixelSpacing": [2.0, 2.0],
      "ProtocolName": "mbep2d_bold_mb2_p3_AP 2iso",
      "RepetitionTime": 1000.0,
      "Rows": 728,
      "SAR": 0.0,
      "SamplesPerPixel": 1,
      "ScanOptions": [
        "PFP",
        "FS"
],
      "ScanningSequence": "EP",
      "SequenceName": "epfid2d1_104",
      "SequenceVariant": [
        "SK",
        "SS"
],
      "SeriesDescription": "mbep2d_bold_mb2_p3_AP 2iso",
      "SeriesNumber": 13,
      "SeriesTime": "142546.109000",
      "SliceLocation": -30.123133673177,
      "SliceThickness": 2.0,
      "SmallestImagePixelValue": 0,
      "SoftwareVersions": "syngo MR B17",
      "SpacingBetweenSlices": 1.9999999702561,
      "SpecificCharacterSet": "ISO_IR 100",
      "StudyID": "1",
      "StudyTime": "140116.000000",
      "TransmitCoilName": "CFMM_8Tx32Rx",
      "VariableFlipAngleFlag": "N",
      "WindowCenterWidthExplanation": "Algo1",
      "dBdt": 0.0},
    "slices": {}
  },
  "time": {
    "samples": {
      "AcquisitionNumber": [1, 2, 3, 4, 5, 6, 7, 8, 9, 10, 11, 12, 13, 14, 15, 16, 17, 18, 19, 20, 21, 22, 23, 24, 25, 26, 27, 28, 29, 30, 31, 32, 33, 34, 35, 36, 37, 38, 39, 40, 41, 42, 43, 44, 45, 46, 47, 48, 49, 50, 51, 52, 53, 54, 55, 56, 57, 58, 59, 60, 61, 62, 63, 64, 65, 66, 67, 68, 69, 70, 71, 72, 73, 74, 75, 76, 77, 78, 79, 80, 81, 82, 83, 84, 85, 86, 87, 88, 89, 90, 91, 92, 93, 94, 95, 96, 97, 98, 99, 100, 101, 102, 103, 104, 105, 106, 107, 108, 109, 110, 111, 112, 113, 114, 115, 116, 117, 118, 119, 120, 121, 122, 123, 124, 125, 126, 127, 128, 129, 130, 131, 132, 133, 134, 135, 136, 137, 138, 139, 140, 141, 142, 143, 144, 145, 146, 147, 148, 149, 150, 151, 152, 153, 154, 155, 156, 157, 158, 159, 160, 161, 162, 163, 164, 165, 166, 167, 168, 169, 170, 171, 172, 173, 174, 175, 176, 177, 178, 179, 180, 181, 182, 183, 184, 185, 186, 187, 188, 189, 190, 191, 192, 193, 194, 195, 196, 197, 198, 199, 200, 201, 202, 203, 204, 205, 206, 207, 208, 209, 210, 211, 212, 213, 214, 215, 216, 217, 218, 219, 220, 221, 222, 223, 224, 225, 226, 227, 228, 229, 230, 231, 232, 233, 234, 235, 236, 237, 238, 239, 240, 241, 242, 243, 244, 245, 246, 247, 248, 249, 250, 251, 252, 253, 254, 255, 256, 257, 258, 259, 260, 261, 262, 263, 264, 265, 266, 267, 268, 269, 270, 271, 272, 273, 274, 275, 276, 277, 278, 279, 280, 281, 282, 283, 284, 285, 286, 287, 288, 289, 290, 291, 292, 293, 294, 295, 296, 297, 298, 299, 300, 301, 302, 303, 304, 305, 306, 307, 308, 309, 310, 311, 312, 313, 314, 315, 316, 317, 318, 319, 320, 321, 322, 323, 324, 325, 326, 327, 328, 329, 330],
      "AcquisitionTime": ["142515.650000", "142516.652500", "142517.657500", "142518.662500", "142519.665000", "142520.670000", "142521.675000", "142522.677500", "142523.682500", "142524.685000", "142525.690000", "142526.695000", "142527.697500", "142528.702500", "142529.705000", "142530.710000", "142531.715000", "142532.717500", "142533.722500", "142534.725000", "142535.730000", "142536.735000", "142537.737500", "142538.742500", "142539.745000", "142540.750000", "142541.755000", "142542.757500", "142543.762500", "142544.765000", "142545.770000", "142546.775000", "142547.777500", "142548.782500", "142549.785000", "142550.790000", "142551.795000", "142552.797500", "142553.802500", "142554.807500", "142555.810000", "142556.815000", "142557.817500", "142558.822500", "142559.827500", "142600.830000", "142601.835000", "142602.837500", "142603.842500", "142604.847500", "142605.850000", "142606.855000", "142607.857500", "142608.862500", "142609.867500", "142610.870000", "142611.875000", "142612.877500", "142613.882500", "142614.887500", "142615.890000", "142616.895000", "142617.897500", "142618.902500", "142619.907500", "142620.910000", "142621.915000", "142622.917500", "142623.922500", "142624.927500", "142625.930000", "142626.935000", "142627.940000", "142628.942500", "142629.947500", "142630.950000", "142631.955000", "142632.960000", "142633.962500", "142634.967500", "142635.970000", "142636.975000", "142637.980000", "142638.982500", "142639.987500", "142640.990000", "142641.995000", "142643.000000", "142644.002500", "142645.007500", "142646.010000", "142647.015000", "142648.020000", "142649.022500", "142650.027500", "142651.030000", "142652.035000", "142653.040000", "142654.042500", "142655.047500", "142656.052500", "142657.055000", "142658.060000", "142659.062500", "142700.067500", "142701.072500", "142702.075000", "142703.080000", "142704.082500", "142705.087500", "142706.092500", "142707.095000", "142708.100000", "142709.102500", "142710.107500", "142711.112500", "142712.115000", "142713.120000", "142714.122500", "142715.127500", "142716.132500", "142717.135000", "142718.140000", "142719.142500", "142720.147500", "142721.152500", "142722.155000", "142723.160000", "142724.162500", "142725.167500", "142726.172500", "142727.175000", "142728.180000", "142729.185000", "142730.187500", "142731.192500", "142732.195000", "142733.200000", "142734.205000", "142735.207500", "142736.212500", "142737.215000", "142738.220000", "142739.225000", "142740.227500", "142741.232500", "142742.235000", "142743.240000", "142744.245000", "142745.247500", "142746.252500", "142747.255000", "142748.260000", "142749.265000", "142750.267500", "142751.272500", "142752.275000", "142753.280000", "142754.285000", "142755.287500", "142756.292500", "142757.297500", "142758.300000", "142759.305000", "142800.307500", "142801.312500", "142802.317500", "142803.320000", "142804.325000", "142805.327500", "142806.332500", "142807.337500", "142808.340000", "142809.345000", "142810.347500", "142811.352500", "142812.357500", "142813.360000", "142814.365000", "142815.367500", "142816.372500", "142817.377500", "142818.380000", "142819.385000", "142820.387500", "142821.392500", "142822.397500", "142823.400000", "142824.405000", "142825.407500", "142826.412500", "142827.417500", "142828.420000", "142829.425000", "142830.430000", "142831.432500", "142832.437500", "142833.440000", "142834.445000", "142835.450000", "142836.452500", "142837.457500", "142838.460000", "142839.465000", "142840.470000", "142841.472500", "142842.477500", "142843.480000", "142844.485000", "142845.490000", "142846.492500", "142847.497500", "142848.500000", "142849.505000", "142850.510000", "142851.512500", "142852.517500", "142853.520000", "142854.525000", "142855.530000", "142856.532500", "142857.537500", "142858.540000", "142859.545000", "142900.550000", "142901.552500", "142902.557500", "142903.562500", "142904.565000", "142905.570000", "142906.572500", "142907.577500", "142908.582500", "142909.585000", "142910.590000", "142911.592500", "142912.597500", "142913.602500", "142914.605000", "142915.610000", "142916.612500", "142917.617500", "142918.622500", "142919.625000", "142920.630000", "142921.632500", "142922.637500", "142923.642500", "142924.645000", "142925.650000", "142926.652500", "142927.657500", "142928.662500", "142929.665000", "142930.670000", "142931.675000", "142932.677500", "142933.682500", "142934.685000", "142935.690000", "142936.695000", "142937.697500", "142938.702500", "142939.705000", "142940.710000", "142941.715000", "142942.717500", "142943.722500", "142944.725000", "142945.730000", "142946.735000", "142947.737500", "142948.742500", "142949.745000", "142950.750000", "142951.755000", "142952.757500", "142953.762500", "142954.765000", "142955.770000", "142956.775000", "142957.777500", "142958.782500", "142959.785000", "143000.790000", "143001.795000", "143002.797500", "143003.802500", "143004.807500", "143005.810000", "143006.815000", "143007.817500", "143008.822500", "143009.827500", "143010.830000", "143011.835000", "143012.837500", "143013.842500", "143014.847500", "143015.850000", "143016.855000", "143017.857500", "143018.862500", "143019.867500", "143020.870000", "143021.875000", "143022.877500", "143023.882500", "143024.887500", "143025.890000", "143026.895000", "143027.897500", "143028.902500", "143029.907500", "143030.910000", "143031.915000", "143032.917500", "143033.922500", "143034.927500", "143035.930000", "143036.935000", "143037.940000", "143038.942500", "143039.947500", "143040.950000", "143041.955000", "143042.960000", "143043.962500", "143044.967500", "143045.970000"],
      "ContentTime": ["142546.109000", "142546.109000", "142546.109000", "142546.109000", "142546.109000", "142546.125000", "142546.125000", "142546.125000", "142546.125000", "142546.125000", "142546.125000", "142546.125000", "142546.125000", "142546.140000", "142546.140000", "142546.140000", "142546.140000", "142546.140000", "142546.140000", "142546.156000", "142546.156000", "142546.156000", "142546.156000", "142546.156000", "142546.156000", "142546.156000", "142546.171000", "142546.171000", "142546.171000", "142606.062000", "142606.062000", "142606.078000", "142606.078000", "142606.078000", "142606.078000", "142606.078000", "142606.093000", "142606.093000", "142606.093000", "142606.093000", "142606.093000", "142606.093000", "142606.093000", "142606.109000", "142606.109000", "142606.109000", "142606.109000", "142606.125000", "142606.125000", "142626.062000", "142626.062000", "142626.078000", "142626.078000", "142626.078000", "142626.078000", "142626.093000", "142626.093000", "142626.093000", "142626.093000", "142626.093000", "142626.093000", "142626.093000", "142626.109000", "142626.109000", "142626.109000", "142626.109000", "142626.109000", "142626.125000", "142626.125000", "142646.062000", "142646.062000", "142646.078000", "142646.078000", "142646.078000", "142646.078000", "142646.078000", "142646.078000", "142646.078000", "142646.078000", "142646.093000", "142646.093000", "142646.093000", "142646.093000", "142646.093000", "142646.093000", "142646.093000", "142646.109000", "142646.109000", "142646.109000", "142706.062000", "142706.062000", "142706.062000", "142706.078000", "142706.078000", "142706.078000", "142706.078000", "142706.078000", "142706.078000", "142706.078000", "142706.093000", "142706.093000", "142706.093000", "142706.093000", "142706.109000", "142706.109000", "142706.109000", "142706.109000", "142706.109000", "142706.109000", "142726.062000", "142726.062000", "142726.078000", "142726.078000", "142726.078000", "142726.078000", "142726.078000", "142726.093000", "142726.093000", "142726.093000", "142726.093000", "142726.093000", "142726.093000", "142726.093000", "142726.093000", "142726.109000", "142726.109000", "142726.109000", "142726.109000", "142726.109000", "142746.062000", "142746.062000", "142746.078000", "142746.078000", "142746.078000", "142746.078000", "142746.078000", "142746.078000", "142746.078000", "142746.078000", "142746.093000", "142746.093000", "142746.093000", "142746.093000", "142746.093000", "142746.093000", "142746.093000", "142746.093000", "142746.109000", "142746.109000", "142806.062000", "142806.062000", "142806.078000", "142806.078000", "142806.078000", "142806.078000", "142806.078000", "142806.078000", "142806.078000", "142806.078000", "142806.093000", "142806.093000", "142806.093000", "142806.093000", "142806.093000", "142806.093000", "142806.093000", "142806.109000", "142806.109000", "142806.109000", "142826.062000", "142826.062000", "142826.078000", "142826.078000", "142826.078000", "142826.078000", "142826.093000", "142826.093000", "142826.093000", "142826.093000", "142826.109000", "142826.109000", "142826.109000", "142826.109000", "142826.109000", "142826.109000", "142826.109000", "142826.125000", "142826.125000", "142826.125000", "142846.062000", "142846.062000", "142846.078000", "142846.078000", "142846.078000", "142846.078000", "142846.078000", "142846.078000", "142846.078000", "142846.078000", "142846.093000", "142846.093000", "142846.093000", "142846.093000", "142846.093000", "142846.093000", "142846.093000", "142846.109000", "142846.109000", "142846.109000", "142906.062000", "142906.062000", "142906.078000", "142906.078000", "142906.078000", "142906.078000", "142906.078000", "142906.078000", "142906.093000", "142906.093000", "142906.093000", "142906.093000", "142906.093000", "142906.093000", "142906.093000", "142906.093000", "142906.109000", "142906.109000", "142906.109000", "142906.109000", "142926.062000", "142926.078000", "142926.078000", "142926.078000", "142926.078000", "142926.078000", "142926.078000", "142926.078000", "142926.093000", "142926.093000", "142926.093000", "142926.093000", "142926.093000", "142926.093000", "142926.093000", "142926.109000", "142926.109000", "142926.109000", "142926.109000", "142926.109000", "142946.062000", "142946.062000", "142946.078000", "142946.078000", "142946.078000", "142946.078000", "142946.078000", "142946.078000", "142946.078000", "142946.093000", "142946.093000", "142946.093000", "142946.093000", "142946.093000", "142946.109000", "142946.109000", "142946.109000", "142946.109000", "142946.109000", "142946.109000", "143006.062000", "143006.062000", "143006.078000", "143006.078000", "143006.078000", "143006.078000", "143006.078000", "143006.078000", "143006.078000", "143006.078000", "143006.093000", "143006.093000", "143006.093000", "143006.093000", "143006.093000", "143006.109000", "143006.109000", "143006.109000", "143006.109000", "143006.109000", "143026.062000", "143026.062000", "143026.078000", "143026.078000", "143026.078000", "143026.078000", "143026.078000", "143026.078000", "143026.078000", "143026.078000", "143026.093000", "143026.093000", "143026.093000", "143026.093000", "143026.093000", "143026.093000", "143026.093000", "143026.109000", "143026.109000", "143026.109000", "143046.062000", "143046.062000", "143046.078000", "143046.078000", "143046.078000", "143046.078000", "143046.078000", "143046.078000", "143046.093000", "143046.093000", "143046.093000", "143046.093000", "143046.093000", "143046.093000", "143046.093000", "143046.109000", "143046.109000", "143046.109000", "143046.109000", "143046.109000", "143051.531000"],
      "InstanceCreationTime": ["142546.109000", "142546.109000", "142546.109000", "142546.109000", "142546.109000", "142546.125000", "142546.125000", "142546.125000", "142546.125000", "142546.125000", "142546.125000", "142546.125000", "142546.125000", "142546.140000", "142546.140000", "142546.140000", "142546.140000", "142546.140000", "142546.140000", "142546.156000", "142546.156000", "142546.156000", "142546.156000", "142546.156000", "142546.156000", "142546.156000", "142546.171000", "142546.171000", "142546.171000", "142606.062000", "142606.062000", "142606.078000", "142606.078000", "142606.078000", "142606.078000", "142606.078000", "142606.093000", "142606.093000", "142606.093000", "142606.093000", "142606.093000", "142606.093000", "142606.093000", "142606.109000", "142606.109000", "142606.109000", "142606.109000", "142606.125000", "142606.125000", "142626.062000", "142626.062000", "142626.078000", "142626.078000", "142626.078000", "142626.078000", "142626.093000", "142626.093000", "142626.093000", "142626.093000", "142626.093000", "142626.093000", "142626.093000", "142626.109000", "142626.109000", "142626.109000", "142626.109000", "142626.109000", "142626.125000", "142626.125000", "142646.062000", "142646.062000", "142646.078000", "142646.078000", "142646.078000", "142646.078000", "142646.078000", "142646.078000", "142646.078000", "142646.078000", "142646.093000", "142646.093000", "142646.093000", "142646.093000", "142646.093000", "142646.093000", "142646.093000", "142646.109000", "142646.109000", "142646.109000", "142706.062000", "142706.062000", "142706.062000", "142706.078000", "142706.078000", "142706.078000", "142706.078000", "142706.078000", "142706.078000", "142706.078000", "142706.093000", "142706.093000", "142706.093000", "142706.093000", "142706.109000", "142706.109000", "142706.109000", "142706.109000", "142706.109000", "142706.109000", "142726.062000", "142726.062000", "142726.078000", "142726.078000", "142726.078000", "142726.078000", "142726.078000", "142726.093000", "142726.093000", "142726.093000", "142726.093000", "142726.093000", "142726.093000", "142726.093000", "142726.093000", "142726.109000", "142726.109000", "142726.109000", "142726.109000", "142726.109000", "142746.062000", "142746.062000", "142746.078000", "142746.078000", "142746.078000", "142746.078000", "142746.078000", "142746.078000", "142746.078000", "142746.078000", "142746.093000", "142746.093000", "142746.093000", "142746.093000", "142746.093000", "142746.093000", "142746.093000", "142746.093000", "142746.109000", "142746.109000", "142806.062000", "142806.062000", "142806.078000", "142806.078000", "142806.078000", "142806.078000", "142806.078000", "142806.078000", "142806.078000", "142806.078000", "142806.093000", "142806.093000", "142806.093000", "142806.093000", "142806.093000", "142806.093000", "142806.093000", "142806.109000", "142806.109000", "142806.109000", "142826.062000", "142826.062000", "142826.078000", "142826.078000", "142826.078000", "142826.078000", "142826.093000", "142826.093000", "142826.093000", "142826.093000", "142826.109000", "142826.109000", "142826.109000", "142826.109000", "142826.109000", "142826.109000", "142826.109000", "142826.125000", "142826.125000", "142826.125000", "142846.062000", "142846.062000", "142846.078000", "142846.078000", "142846.078000", "142846.078000", "142846.078000", "142846.078000", "142846.078000", "142846.078000", "142846.093000", "142846.093000", "142846.093000", "142846.093000", "142846.093000", "142846.093000", "142846.093000", "142846.109000", "142846.109000", "142846.109000", "142906.062000", "142906.062000", "142906.078000", "142906.078000", "142906.078000", "142906.078000", "142906.078000", "142906.078000", "142906.093000", "142906.093000", "142906.093000", "142906.093000", "142906.093000", "142906.093000", "142906.093000", "142906.093000", "142906.109000", "142906.109000", "142906.109000", "142906.109000", "142926.062000", "142926.078000", "142926.078000", "142926.078000", "142926.078000", "142926.078000", "142926.078000", "142926.078000", "142926.093000", "142926.093000", "142926.093000", "142926.093000", "142926.093000", "142926.093000", "142926.093000", "142926.109000", "142926.109000", "142926.109000", "142926.109000", "142926.109000", "142946.062000", "142946.062000", "142946.078000", "142946.078000", "142946.078000", "142946.078000", "142946.078000", "142946.078000", "142946.078000", "142946.093000", "142946.093000", "142946.093000", "142946.093000", "142946.093000", "142946.109000", "142946.109000", "142946.109000", "142946.109000", "142946.109000", "142946.109000", "143006.062000", "143006.062000", "143006.078000", "143006.078000", "143006.078000", "143006.078000", "143006.078000", "143006.078000", "143006.078000", "143006.078000", "143006.093000", "143006.093000", "143006.093000", "143006.093000", "143006.093000", "143006.109000", "143006.109000", "143006.109000", "143006.109000", "143006.109000", "143026.062000", "143026.062000", "143026.078000", "143026.078000", "143026.078000", "143026.078000", "143026.078000", "143026.078000", "143026.078000", "143026.078000", "143026.093000", "143026.093000", "143026.093000", "143026.093000", "143026.093000", "143026.093000", "143026.093000", "143026.109000", "143026.109000", "143026.109000", "143046.062000", "143046.062000", "143046.078000", "143046.078000", "143046.078000", "143046.078000", "143046.078000", "143046.078000", "143046.093000", "143046.093000", "143046.093000", "143046.093000", "143046.093000", "143046.093000", "143046.093000", "143046.109000", "143046.109000", "143046.109000", "143046.109000", "143046.109000", "143051.531000"],
      "InstanceNumber": [1, 2, 3, 4, 5, 6, 7, 8, 9, 10, 11, 12, 13, 14, 15, 16, 17, 18, 19, 20, 21, 22, 23, 24, 25, 26, 27, 28, 29, 30, 31, 32, 33, 34, 35, 36, 37, 38, 39, 40, 41, 42, 43, 44, 45, 46, 47, 48, 49, 50, 51, 52, 53, 54, 55, 56, 57, 58, 59, 60, 61, 62, 63, 64, 65, 66, 67, 68, 69, 70, 71, 72, 73, 74, 75, 76, 77, 78, 79, 80, 81, 82, 83, 84, 85, 86, 87, 88, 89, 90, 91, 92, 93, 94, 95, 96, 97, 98, 99, 100, 101, 102, 103, 104, 105, 106, 107, 108, 109, 110, 111, 112, 113, 114, 115, 116, 117, 118, 119, 120, 121, 122, 123, 124, 125, 126, 127, 128, 129, 130, 131, 132, 133, 134, 135, 136, 137, 138, 139, 140, 141, 142, 143, 144, 145, 146, 147, 148, 149, 150, 151, 152, 153, 154, 155, 156, 157, 158, 159, 160, 161, 162, 163, 164, 165, 166, 167, 168, 169, 170, 171, 172, 173, 174, 175, 176, 177, 178, 179, 180, 181, 182, 183, 184, 185, 186, 187, 188, 189, 190, 191, 192, 193, 194, 195, 196, 197, 198, 199, 200, 201, 202, 203, 204, 205, 206, 207, 208, 209, 210, 211, 212, 213, 214, 215, 216, 217, 218, 219, 220, 221, 222, 223, 224, 225, 226, 227, 228, 229, 230, 231, 232, 233, 234, 235, 236, 237, 238, 239, 240, 241, 242, 243, 244, 245, 246, 247, 248, 249, 250, 251, 252, 253, 254, 255, 256, 257, 258, 259, 260, 261, 262, 263, 264, 265, 266, 267, 268, 269, 270, 271, 272, 273, 274, 275, 276, 277, 278, 279, 280, 281, 282, 283, 284, 285, 286, 287, 288, 289, 290, 291, 292, 293, 294, 295, 296, 297, 298, 299, 300, 301, 302, 303, 304, 305, 306, 307, 308, 309, 310, 311, 312, 313, 314, 315, 316, 317, 318, 319, 320, 321, 322, 323, 324, 325, 326, 327, 328, 329, 330],
      "LargestImagePixelValue": [3509, 3443, 3473, 3418, 3429, 3384, 3471, 3450, 3385, 3422, 3449, 3385, 3403, 3385, 3413, 3450, 3443, 3467, 3454, 3397, 3397, 3419, 3378, 3447, 3457, 3415, 3431, 3371, 3427, 3405, 3414, 3435, 3437, 3421, 3386, 3406, 3405, 3386, 3405, 3419, 3427, 3408, 3436, 3457, 3425, 3440, 3419, 3441, 3442, 3396, 3448, 3487, 3452, 3460, 3455, 3467, 3479, 3426, 3460, 3427, 3475, 3506, 3456, 3415, 3455, 3508, 3463, 3495, 3452, 3411, 3476, 3422, 3454, 3494, 3439, 3516, 3490, 3500, 3494, 3514, 3442, 3489, 3524, 3486, 3502, 3466, 3468, 3497, 3475, 3486, 3492, 3499, 3488, 3413, 3382, 3498, 3427, 3430, 3442, 3412, 3437, 3446, 3466, 3410, 3453, 3485, 3457, 3474, 3478, 3511, 3475, 3431, 3518, 3528, 3488, 3513, 3513, 3503, 3478, 3459, 3485, 3510, 3432, 3487, 3487, 3470, 3520, 3484, 3508, 3487, 3526, 3472, 3456, 3486, 3496, 3517, 3505, 3451, 3500, 3499, 3527, 3483, 3496, 3450, 3482, 3512, 3523, 3549, 3510, 3494, 3510, 3462, 3499, 3495, 3471, 3540, 3514, 3475, 3499, 3507, 3484, 3541, 3528, 3484, 3531, 3478, 3504, 3526, 3558, 3461, 3529, 3514, 3548, 3540, 3494, 3552, 3556, 3514, 3551, 3542, 3615, 3598, 3525, 3569, 3528, 3544, 3543, 3533, 3533, 3478, 3514, 3492, 3568, 3537, 3536, 3579, 3515, 3517, 3485, 3482, 3530, 3500, 3497, 3557, 3496, 3491, 3562, 3538, 3535, 3531, 3511, 3551, 3483, 3483, 3537, 3559, 3514, 3516, 3498, 3516, 3568, 3476, 3569, 3544, 3545, 3589, 3555, 3572, 3545, 3528, 3574, 3489, 3502, 3533, 3491, 3547, 3532, 3499, 3554, 3528, 3562, 3536, 3495, 3543, 3575, 3533, 3555, 3547, 3536, 3586, 3565, 3557, 3509, 3558, 3526, 3518, 3572, 3507, 3498, 3521, 3523, 3523, 3520, 3520, 3512, 3565, 3507, 3536, 3501, 3544, 3563, 3508, 3519, 3492, 3526, 3535, 3539, 3485, 3513, 3549, 3522, 3566, 3515, 3477, 3521, 3491, 3512, 3479, 3484, 3523, 3515, 3523, 3537, 3500, 3541, 3539, 3481, 3550, 3523, 3533, 3562, 3476, 3494, 3537, 3470, 3511, 3523, 3477, 3499, 3516, 3505, 3542, 3458, 3460, 3485, 3513, 3507, 3504, 3468, 3529, 3489, 3464, 3485, 3497, 3488, 3540, 3528, 3442, 3525, 3471],
      "WindowCenter": [443.0, 442.0, 442.0, 441.0, 441.0, 440.0, 441.0, 441.0, 440.0, 440.0, 441.0, 440.0, 440.0, 440.0, 441.0, 442.0, 442.0, 442.0, 442.0, 441.0, 440.0, 441.0, 441.0, 442.0, 443.0, 442.0, 443.0, 441.0, 441.0, 441.0, 441.0, 442.0, 443.0, 442.0, 441.0, 440.0, 440.0, 440.0, 440.0, 442.0, 443.0, 443.0, 443.0, 443.0, 442.0, 442.0, 441.0, 442.0, 442.0, 441.0, 442.0, 442.0, 441.0, 442.0, 442.0, 441.0, 442.0, 441.0, 442.0, 442.0, 443.0, 443.0, 442.0, 442.0, 442.0, 443.0, 442.0, 443.0, 442.0, 441.0, 442.0, 442.0, 442.0, 444.0, 444.0, 444.0, 445.0, 444.0, 443.0, 443.0, 442.0, 442.0, 443.0, 441.0, 441.0, 441.0, 440.0, 442.0, 442.0, 444.0, 445.0, 444.0, 444.0, 442.0, 441.0, 443.0, 443.0, 443.0, 444.0, 443.0, 442.0, 441.0, 442.0, 441.0, 442.0, 444.0, 444.0, 444.0, 444.0, 444.0, 443.0, 442.0, 443.0, 443.0, 442.0, 443.0, 443.0, 442.0, 444.0, 445.0, 445.0, 446.0, 443.0, 443.0, 442.0, 441.0, 442.0, 441.0, 442.0, 442.0, 442.0, 441.0, 441.0, 441.0, 441.0, 443.0, 444.0, 444.0, 444.0, 444.0, 443.0, 442.0, 443.0, 442.0, 443.0, 443.0, 442.0, 442.0, 442.0, 441.0, 442.0, 441.0, 443.0, 443.0, 442.0, 443.0, 443.0, 442.0, 441.0, 442.0, 442.0, 443.0, 444.0, 443.0, 443.0, 442.0, 441.0, 443.0, 444.0, 444.0, 445.0, 444.0, 444.0, 445.0, 443.0, 443.0, 442.0, 442.0, 444.0, 444.0, 445.0, 445.0, 443.0, 442.0, 443.0, 443.0, 445.0, 445.0, 446.0, 444.0, 443.0, 441.0, 442.0, 443.0, 443.0, 445.0, 444.0, 444.0, 444.0, 443.0, 445.0, 444.0, 444.0, 445.0, 444.0, 444.0, 445.0, 444.0, 443.0, 443.0, 443.0, 444.0, 444.0, 444.0, 445.0, 445.0, 442.0, 443.0, 443.0, 444.0, 445.0, 445.0, 446.0, 445.0, 445.0, 446.0, 445.0, 444.0, 444.0, 443.0, 444.0, 443.0, 445.0, 446.0, 445.0, 445.0, 445.0, 443.0, 444.0, 443.0, 444.0, 445.0, 444.0, 445.0, 445.0, 443.0, 444.0, 444.0, 443.0, 444.0, 445.0, 446.0, 445.0, 446.0, 444.0, 443.0, 445.0, 444.0, 444.0, 445.0, 445.0, 445.0, 445.0, 443.0, 443.0, 445.0, 444.0, 444.0, 443.0, 443.0, 443.0, 442.0, 441.0, 441.0, 443.0, 443.0, 445.0, 444.0, 445.0, 445.0, 444.0, 445.0, 444.0, 443.0, 444.0, 443.0, 444.0, 443.0, 444.0, 445.0, 445.0, 444.0, 444.0, 442.0, 443.0, 443.0, 441.0, 443.0, 443.0, 444.0, 445.0, 444.0, 444.0, 445.0, 443.0, 444.0, 444.0, 443.0, 443.0, 443.0, 444.0, 445.0, 443.0, 443.0, 443.0, 443.0, 443.0, 443.0, 443.0, 444.0, 443.0, 442.0, 442.0, 442.0, 441.0, 443.0, 443.0, 442.0, 444.0, 444.0],
